,time,S3_D4_HbO,S3_D3_HbO,S2_D3_HbO,S2_D2_HbO,S1_D2_HbO,S1_D1_HbO,S3_D4_HbR,S3_D3_HbR,S2_D3_HbR,S2_D2_HbR,S1_D2_HbR,S1_D1_HbR,Var14,score,labelnum,filename,total_time
0,1220.9280000000003,-0.0010620085499999988,-0.25580429800000004,2.9185002300000003,-1.41719711,-0.873715436,-1.23354415,-0.28244543399999994,-0.3519511350000001,0.15701432999999998,-0.08707943879999999,-0.2927849289999999,-0.09121494829999999,,212.87878787878788,1,L03_NIRS-2019-08-15_007_trial10.txt,75.0
1,1222.208,0.11502395189999999,-0.208395676,3.02608223,-1.3138738900000002,-0.818071078,-1.1619267999999998,-0.30769322200000004,-0.347939836,0.19364604500000002,-0.0628624329,-0.27764334199999996,-0.0750579338,,212.87878787878788,1,L03_NIRS-2019-08-15_007_trial10.txt,75.0
2,1223.488,0.19919616,-0.171416179,3.18755754,-1.14890215,-0.70518941,-1.009149856,-0.325335791,-0.35695036799999996,0.216590427,-0.04948090370000001,-0.272756942,-0.05043744499999999,,212.87878787878788,1,L03_NIRS-2019-08-15_007_trial10.txt,75.0
3,1224.768,0.288786351,-0.09664970480000001,3.39341893,-0.952293221,-0.5281824320000001,-0.765657226,-0.319064443,-0.356415248,0.23628038699999995,-0.0354353396,-0.263444877,-0.0245060461,,212.87878787878788,1,L03_NIRS-2019-08-15_007_trial10.txt,75.0
4,1226.048,0.45340641000000004,0.06545918909,3.6385585399999996,-0.697674273,-0.26831457500000006,-0.44998945,-0.28343726799999996,-0.33267827299999997,0.255873059,-0.019584503899999998,-0.24317436399999998,-0.013982999500000001,,212.87878787878788,1,L03_NIRS-2019-08-15_007_trial10.txt,75.0
5,1227.328,0.6563193170000001,0.271993292,3.86192618,-0.42366813700000006,0.03483489636,-0.1193036196,-0.232803939,-0.298431055,0.263555028,-0.0137174088,-0.215294371,-0.027233625700000003,,212.87878787878788,1,L03_NIRS-2019-08-15_007_trial10.txt,75.0
6,1228.6079999999997,0.8500241510000001,0.451330381,4.011071579999999,-0.218144554,0.270537844,0.11798698029999999,-0.192504547,-0.274118483,0.25013005699999996,-0.027863571499999996,-0.20510504400000001,-0.0700873262,,212.87878787878788,1,L03_NIRS-2019-08-15_007_trial10.txt,75.0
7,1229.888,0.98370935,0.5316027130000001,4.051037010000001,-0.14314244999999998,0.36048671000000004,0.192952438,-0.188353519,-0.284832255,0.20917040399999998,-0.0715470242,-0.233886088,-0.1372803,,212.87878787878788,1,L03_NIRS-2019-08-15_007_trial10.txt,75.0
8,1231.1680000000001,0.9904287009999999,0.490948723,3.96774628,-0.187188178,0.31410627,0.08222735163000001,-0.23372930100000003,-0.331669056,0.1357740236,-0.132330316,-0.291706015,-0.21167480199999997,,212.87878787878788,1,L03_NIRS-2019-08-15_007_trial10.txt,75.0
9,1232.4479999999999,0.9276200729999999,0.404620242,3.85331943,-0.276116093,0.191643106,-0.0905764798,-0.2936124,-0.38250939500000003,0.061160892599999996,-0.191556102,-0.360533786,-0.27302113,,212.87878787878788,1,L03_NIRS-2019-08-15_007_trial10.txt,75.0
10,1233.728,0.865736926,0.33277833,3.7783362600000006,-0.351008184,0.08409398770000001,-0.21616764699999996,-0.339293132,-0.419372661,0.010254161507,-0.23231770899999998,-0.41890968199999995,-0.3077791040000001,,212.87878787878788,1,L03_NIRS-2019-08-15_007_trial10.txt,75.0
11,1235.0080000000003,0.8389624059999999,0.30872350699999995,3.7568086700000003,-0.382784456,0.0630188486,-0.27592979900000003,-0.35923397999999995,-0.43393811600000004,-0.01297720739,-0.256572038,-0.452603764,-0.32651557899999994,,212.87878787878788,1,L03_NIRS-2019-08-15_007_trial10.txt,75.0
12,1236.288,0.821898275,0.297532804,3.75315515,-0.405266822,0.07533377719999998,-0.29689879,-0.35552235599999993,-0.437288396,-0.0198176022,-0.267904567,-0.46729594399999996,-0.334845043,,212.87878787878788,1,L03_NIRS-2019-08-15_007_trial10.txt,75.0
13,1237.568,0.8093525209999999,0.28179539600000003,3.748624509999999,-0.436901398,0.05391324979999999,-0.32404725200000006,-0.349289973,-0.4413542059999999,-0.0218977536,-0.272748454,-0.480112691,-0.336010303,,212.87878787878788,1,L03_NIRS-2019-08-15_007_trial10.txt,75.0
14,1238.848,0.7950351330000001,0.258764883,3.73141732,-0.45729434700000005,0.021091981710000006,-0.351980444,-0.350457573,-0.45382158400000006,-0.0312508614,-0.277026879,-0.492044994,-0.33478925800000003,,212.87878787878788,1,L03_NIRS-2019-08-15_007_trial10.txt,75.0
15,1240.1280000000002,0.7717084310000001,0.22874103600000004,3.6959466999999995,-0.46872910900000003,0.014083677990000001,-0.357073602,-0.353786005,-0.46189049400000004,-0.04969199419999999,-0.273693223,-0.491191254,-0.333828385,,212.87878787878788,1,L03_NIRS-2019-08-15_007_trial10.txt,75.0
16,1241.408,0.7795265730000001,0.24139212500000004,3.7017240800000004,-0.43980226799999994,0.0589585303,-0.30623984299999996,-0.34663700399999997,-0.45577885399999996,-0.06601317679999999,-0.269875167,-0.4775962509999999,-0.33507543799999995,,212.87878787878788,1,L03_NIRS-2019-08-15_007_trial10.txt,75.0
17,1242.688,0.81410951,0.27977383499999997,3.73343338,-0.422734293,0.09896671060000001,-0.265650277,-0.331551967,-0.44721858000000003,-0.0800420332,-0.272994411,-0.46536672800000006,-0.340889003,,212.87878787878788,1,L03_NIRS-2019-08-15_007_trial10.txt,75.0
18,1243.968,0.8178915449999999,0.28502530000000004,3.73011755,-0.4763227710000001,0.07766280309999998,-0.296450749,-0.33026480100000005,-0.4543483599999999,-0.0997165246,-0.284209392,-0.465226407,-0.35126565800000004,,212.87878787878788,1,L03_NIRS-2019-08-15_007_trial10.txt,75.0
19,1245.248,0.7955842900000001,0.253105211,3.70725089,-0.5408132320000001,0.00246653476,-0.36238574999999995,-0.343358885,-0.482346316,-0.12433710299999998,-0.304238135,-0.482896248,-0.358378775,,212.87878787878788,1,L03_NIRS-2019-08-15_007_trial10.txt,75.0
20,1246.5279999999998,0.7414860710000001,0.18781269900000003,3.67800427,-0.5794974250000001,-0.07553308510000001,-0.43046003600000005,-0.368996566,-0.5235720450000001,-0.150179786,-0.32647461800000005,-0.509257706,-0.356603023,,212.87878787878788,1,L03_NIRS-2019-08-15_007_trial10.txt,75.0
21,1247.808,0.708104158,0.14161711399999996,3.67352372,-0.562253855,-0.0918194125,-0.46805292200000004,-0.39771077000000005,-0.563449891,-0.171853965,-0.347183492,-0.532060046,-0.34971270200000004,,212.87878787878788,1,L03_NIRS-2019-08-15_007_trial10.txt,75.0
22,1249.0880000000002,0.7274778639999999,0.143872899,3.7061973999999998,-0.520778654,-0.04092559353999999,-0.467517517,-0.423376729,-0.589221959,-0.184865332,-0.364416075,-0.541915172,-0.342560609,,212.87878787878788,1,L03_NIRS-2019-08-15_007_trial10.txt,75.0
23,1250.368,0.797884152,0.20299921699999995,3.76858626,-0.480362825,0.037425262599999995,-0.44622039999999996,-0.44156078,-0.598645396,-0.18873817899999998,-0.37101846099999997,-0.536118657,-0.338479533,,212.87878787878788,1,L03_NIRS-2019-08-15_007_trial10.txt,75.0
24,1251.648,0.8897851320000001,0.27807488900000005,3.8205317099999996,-0.45870869999999997,0.0718328644,-0.43532548800000004,-0.452784871,-0.6022487990000001,-0.188254557,-0.37641865900000004,-0.5250410000000001,-0.337424053,,212.87878787878788,1,L03_NIRS-2019-08-15_007_trial10.txt,75.0
25,1252.9280000000003,0.9354845629999999,0.298455725,3.8161202899999997,-0.48154578800000003,0.04753429699999999,-0.453146814,-0.47225120700000006,-0.6119956720000002,-0.19099767,-0.375405933,-0.516900929,-0.340092973,,212.87878787878788,1,L03_NIRS-2019-08-15_007_trial10.txt,75.0
26,1254.208,0.9495789179999999,0.285487184,3.7948972500000004,-0.487901158,0.0283768659,-0.47057099299999994,-0.4921719319999999,-0.6238509459999999,-0.19588669,-0.376195847,-0.5170461740000001,-0.346817243,,212.87878787878788,1,L03_NIRS-2019-08-15_007_trial10.txt,75.0
27,1255.488,0.9136090390000001,0.25446501400000004,3.7782497,-0.48512448399999986,0.0341677549,-0.4824314280000001,-0.492217426,-0.628668438,-0.197546886,-0.37445801600000006,-0.521182879,-0.355430215,,212.87878787878788,1,L03_NIRS-2019-08-15_007_trial10.txt,75.0
28,1256.768,0.8868337369999999,0.243115119,3.7750628599999994,-0.493738019,0.0411753599,-0.496487696,-0.473447332,-0.6206199050000001,-0.194369293,-0.37117440900000004,-0.5227280729999999,-0.365630996,,212.87878787878788,1,L03_NIRS-2019-08-15_007_trial10.txt,75.0
29,1258.048,0.8576134719999999,0.23778717200000005,3.7804782099999996,-0.527158282,0.024611101229999998,-0.509838401,-0.449210513,-0.606953022,-0.184826601,-0.364914976,-0.521536821,-0.37133688000000004,,212.87878787878788,1,L03_NIRS-2019-08-15_007_trial10.txt,75.0
30,1259.328,0.7868458410000001,0.207258144,3.7594841299999997,-0.581802401,-0.002187486739,-0.5344212190000001,-0.41270279200000004,-0.5881735370000001,-0.167720381,-0.345237905,-0.51229862,-0.370354835,,212.87878787878788,1,L03_NIRS-2019-08-15_007_trial10.txt,75.0
31,1260.6079999999997,0.7135154370000001,0.16398158599999998,3.72756052,-0.607432942,-0.018487945800000002,-0.5487599519999999,-0.364069565,-0.5612048169999999,-0.14162165699999998,-0.325239559,-0.502898566,-0.3656082849999999,,212.87878787878788,1,L03_NIRS-2019-08-15_007_trial10.txt,75.0
32,1261.888,0.6630401290000001,0.1113260495,3.6911848999999997,-0.607810543,0.0231570857273,-0.5404295450000001,-0.318367225,-0.536317556,-0.11914819600000001,-0.3102439,-0.48893824099999994,-0.36468443,,212.87878787878788,1,L03_NIRS-2019-08-15_007_trial10.txt,75.0
33,1263.1680000000001,0.666553773,0.1026595919,3.7018268900000004,-0.545472995,0.1334300138,-0.501793291,-0.28474947800000006,-0.512169244,-0.09924909439999999,-0.300032742,-0.47055048299999996,-0.364574841,,212.87878787878788,1,L03_NIRS-2019-08-15_007_trial10.txt,75.0
34,1264.4479999999999,0.7536311119999999,0.18503596,3.79098676,-0.42552897100000003,0.284958787,-0.418974681,-0.25492913999999994,-0.48338555000000005,-0.07776175090000001,-0.292863623,-0.451744472,-0.36812742600000004,,212.87878787878788,1,L03_NIRS-2019-08-15_007_trial10.txt,75.0
35,1265.728,0.932464461,0.348353197,3.9586550899999997,-0.24633842499999997,0.46855480200000005,-0.264027838,-0.23420065399999998,-0.463305704,-0.061365172700000005,-0.30315019400000004,-0.446065928,-0.37755901899999994,,212.87878787878788,1,L03_NIRS-2019-08-15_007_trial10.txt,75.0
36,1267.0080000000003,1.0941169099999999,0.504029283,4.12444148,-0.0663686329,0.6624868970000002,-0.07326888459,-0.22726832000000002,-0.456258253,-0.05521730210000001,-0.32183558600000006,-0.44918062799999997,-0.395173432,,212.87878787878788,1,L03_NIRS-2019-08-15_007_trial10.txt,75.0
37,1268.288,1.17716295,0.597020045,4.21996329,0.04973038553,0.798855447,0.0814828479,-0.21864184299999997,-0.453335388,-0.0600240999,-0.33963380700000007,-0.46467806199999995,-0.423968105,,212.87878787878788,1,L03_NIRS-2019-08-15_007_trial10.txt,75.0
38,1269.568,1.1468553,0.593826146,4.21360431,0.059812410900000015,0.8186446230000002,0.149874089,-0.207929719,-0.46026523699999994,-0.08277734340000001,-0.36812863400000007,-0.499616307,-0.462605982,,212.87878787878788,1,L03_NIRS-2019-08-15_007_trial10.txt,75.0
39,1270.848,1.032537637,0.5091048089999999,4.10512827,-0.04746777689,0.7500125360000001,0.10776689940000002,-0.19725576500000003,-0.48319298199999994,-0.129325345,-0.40568967499999997,-0.5384985630000001,-0.511529612,,212.87878787878788,1,L03_NIRS-2019-08-15_007_trial10.txt,75.0
40,1272.1280000000002,0.877353377,0.398127251,3.9488402900000006,-0.192007043,0.631428399,-0.020431657960000002,-0.194027254,-0.514459516,-0.18474732700000002,-0.4373455870000001,-0.567988648,-0.5536716559999999,,212.87878787878788,1,L03_NIRS-2019-08-15_007_trial10.txt,75.0
41,1273.408,0.7673825030000001,0.317399049,3.7978802899999997,-0.325487252,0.512653867,-0.18269808199999998,-0.208641729,-0.546524563,-0.233324619,-0.46008003799999997,-0.5868895479999999,-0.5857393949999999,,212.87878787878788,1,L03_NIRS-2019-08-15_007_trial10.txt,75.0
42,1274.688,0.71686882,0.280125847,3.7122223599999997,-0.366146244,0.45618573100000004,-0.28910529000000007,-0.239804038,-0.580989011,-0.263353529,-0.47980406000000003,-0.605330268,-0.600035069,,212.87878787878788,1,L03_NIRS-2019-08-15_007_trial10.txt,75.0
43,1275.968,0.6974111259999999,0.26888278400000004,3.6867553600000003,-0.35059453800000007,0.453916859,-0.338038904,-0.273031377,-0.607237105,-0.27407358600000004,-0.4908059660000001,-0.6172736549999999,-0.6001226199999999,,212.87878787878788,1,L03_NIRS-2019-08-15_007_trial10.txt,75.0
44,1277.248,0.705337673,0.274982339,3.7160477500000004,-0.339102546,0.423453766,-0.37171360900000006,-0.306638737,-0.6210083479999999,-0.268253757,-0.495306119,-0.6361216639999999,-0.588855957,,212.87878787878788,1,L03_NIRS-2019-08-15_007_trial10.txt,75.0
45,1278.5279999999998,0.695112189,0.258433031,3.7422645799999996,-0.38102423300000005,0.342366326,-0.42115889399999995,-0.348964636,-0.641423822,-0.266057947,-0.5009809350000001,-0.6602831250000001,-0.5710087890000001,,212.87878787878788,1,L03_NIRS-2019-08-15_007_trial10.txt,75.0
46,1279.808,0.65444989,0.206485085,3.71667576,-0.445705122,0.253621726,-0.4693044959999999,-0.38949278499999995,-0.6720704449999999,-0.27929767200000005,-0.5039846889999999,-0.678425524,-0.5486480489999999,,212.87878787878788,1,L03_NIRS-2019-08-15_007_trial10.txt,75.0
47,1281.0880000000002,0.640700715,0.158699147,3.6553657299999998,-0.49462828100000006,0.21676886199999998,-0.500304836,-0.424976853,-0.7011940620000001,-0.29949188000000004,-0.498103874,-0.6745622310000001,-0.5278102870000001,,212.87878787878788,1,L03_NIRS-2019-08-15_007_trial10.txt,75.0
48,1282.368,0.6957370150000001,0.16412498599999997,3.61845115,-0.5143741150000001,0.235038861,-0.5080956179999999,-0.461332787,-0.713738862,-0.30532860500000003,-0.47633336000000004,-0.649868541,-0.508628311,,212.87878787878788,1,L03_NIRS-2019-08-15_007_trial10.txt,75.0
49,1283.648,0.7499516030000001,0.19663950800000002,3.61718657,-0.5127656500000001,0.25349977900000004,-0.520514265,-0.490632313,-0.703614331,-0.287433851,-0.4447274640000001,-0.613175937,-0.4914357960000001,,212.87878787878788,1,L03_NIRS-2019-08-15_007_trial10.txt,75.0
50,1284.9280000000003,0.8055614949999998,0.257814438,3.66174204,-0.490524583,0.27814543499999994,-0.527361561,-0.500593787,-0.6726477689999999,-0.253700995,-0.405046034,-0.5685183790000001,-0.47995694499999997,,212.87878787878788,1,L03_NIRS-2019-08-15_007_trial10.txt,75.0
51,1286.208,0.8647749320000001,0.316571385,3.7508281999999995,-0.44874147000000003,0.29190044400000004,-0.49743719299999994,-0.514100206,-0.6449759009999999,-0.214907444,-0.36695646900000006,-0.5387980220000002,-0.467346733,,212.87878787878788,1,L03_NIRS-2019-08-15_007_trial10.txt,75.0
52,1287.488,0.9026952999999999,0.32683999099999994,3.80960908,-0.415785212,0.305423192,-0.471801574,-0.537926592,-0.6361581449999999,-0.193143797,-0.34049087899999997,-0.5195013439999999,-0.458416275,,212.87878787878788,1,L03_NIRS-2019-08-15_007_trial10.txt,75.0
53,1288.768,0.8890614730000002,0.278770444,3.8026635899999994,-0.406143504,0.29196178700000003,-0.46645942900000004,-0.549472928,-0.6393205860000001,-0.194305438,-0.32509292,-0.513387275,-0.449164086,,212.87878787878788,1,L03_NIRS-2019-08-15_007_trial10.txt,75.0
54,1290.048,0.855054398,0.204099522,3.7459875699999996,-0.44817374800000004,0.23767699700000003,-0.48425162899999996,-0.543772149,-0.647915709,-0.21171863000000002,-0.3215072149999999,-0.513165697,-0.440227097,,212.87878787878788,1,L03_NIRS-2019-08-15_007_trial10.txt,75.0
55,1291.328,0.8342287189999998,0.16520765899999998,3.71636915,-0.49204839200000006,0.186997132,-0.492918152,-0.5315838060000001,-0.647231499,-0.22131998999999997,-0.32027355199999996,-0.5116294010000001,-0.428471697,,212.87878787878788,1,L03_NIRS-2019-08-15_007_trial10.txt,75.0
56,1292.6079999999997,0.7889621850000001,0.138977163,3.6847987600000005,-0.566664721,0.11943861329999998,-0.521981145,-0.527473141,-0.6405786130000001,-0.22214187800000001,-0.31754486200000004,-0.502609769,-0.41529510700000005,,212.87878787878788,1,L03_NIRS-2019-08-15_007_trial10.txt,75.0
57,1293.888,0.717848271,0.08911578220000001,3.5857753000000003,-0.67307076,0.0501464205,-0.5828661399999999,-0.5354014790000001,-0.639936685,-0.22497509400000001,-0.322804097,-0.4867444119999999,-0.402242858,,212.87878787878788,1,L03_NIRS-2019-08-15_007_trial10.txt,75.0
58,1295.104,0.6554702577777777,-0.004435405266666668,3.4555397000000005,-0.7613880433333333,-0.028527568133333334,-0.5925157033333334,-0.5713637166666666,-0.6649394877777778,-0.23032916888888888,-0.3333820977777778,-0.4872232888888888,-0.3814235255555556,,212.87878787878788,1,L03_NIRS-2019-08-15_007_trial10.txt,75.0
