,time,S3_D4_HbO,S3_D3_HbO,S2_D3_HbO,S2_D2_HbO,S1_D2_HbO,S1_D1_HbO,S3_D4_HbR,S3_D3_HbR,S2_D3_HbR,S2_D2_HbR,S1_D2_HbR,S1_D1_HbR,Var14,score,labelnum,filename,total_time
0,810.5600000000001,-0.649166556,-0.4338710999999999,-0.0752089088,-0.622142279,-0.7038966379999999,-0.19671492799999998,0.379496084,0.35529537600000005,0.346751835,0.36336178299999994,0.404859831,0.356106313,,166.84848484848484,1,L03_NIRS-2019-08-12_004_trial05.txt,118.0
1,811.84,-0.5819537840000001,-0.36309955400000005,0.022139883521,-0.5675281270000001,-0.627374361,-0.0729767398,0.3270038509999999,0.340205119,0.346211618,0.37330744200000004,0.404546628,0.3458958710000001,,166.84848484848484,1,L03_NIRS-2019-08-12_004_trial05.txt,118.0
2,813.12,-0.48490985000000003,-0.290911296,0.0867065472,-0.515094574,-0.5456702250000001,0.05338974606,0.300949158,0.333904469,0.33876163700000006,0.376566288,0.398314087,0.33700846400000006,,166.84848484848484,1,L03_NIRS-2019-08-12_004_trial05.txt,118.0
3,814.3999999999999,-0.35082483100000006,-0.18018152399999995,0.19446578099999998,-0.4556648880000001,-0.47229757600000005,0.132287136,0.297806461,0.337123177,0.33881888299999996,0.370742966,0.38673014099999997,0.32402747099999996,,166.84848484848484,1,L03_NIRS-2019-08-12_004_trial05.txt,118.0
4,815.6800000000001,-0.18956466499999997,-0.01203208657,0.35014120200000004,-0.385207604,-0.4061918209999999,0.18069985900000002,0.302599574,0.353461123,0.34911822200000003,0.35592227800000004,0.369693508,0.30410229,,166.84848484848484,1,L03_NIRS-2019-08-12_004_trial05.txt,118.0
5,816.96,-0.03731550363,0.1782819071,0.507711564,-0.3105617789999999,-0.327117995,0.256534927,0.294442154,0.37166961400000004,0.366780224,0.342000054,0.346791424,0.282672951,,166.84848484848484,1,L03_NIRS-2019-08-12_004_trial05.txt,118.0
6,818.2399999999999,0.060060117499999996,0.3135580130000001,0.6052964820000001,-0.242578242,-0.24136735500000003,0.37103236100000003,0.262435418,0.376101488,0.38107640899999995,0.32660951400000005,0.325308382,0.260529856,,166.84848484848484,1,L03_NIRS-2019-08-12_004_trial05.txt,118.0
7,819.5200000000001,0.1261399349,0.38268237699999996,0.6619667650000001,-0.154019361,-0.13990679189999997,0.5228576540000001,0.22481029600000002,0.36484015,0.380228264,0.30709388700000007,0.304670158,0.23530397499999997,,166.84848484848484,1,L03_NIRS-2019-08-12_004_trial05.txt,118.0
8,820.8,0.22075110800000003,0.436547275,0.7532918000000001,-0.03157030356,-0.025845097645,0.666830912,0.203067166,0.34894891799999994,0.36619377100000006,0.275389704,0.275410774,0.204964704,,166.84848484848484,1,L03_NIRS-2019-08-12_004_trial05.txt,118.0
9,822.0799999999999,0.324603323,0.49847574899999997,0.8854628840000001,0.0724839386,0.05947055689999999,0.7426925240000001,0.20253932200000002,0.33383839300000007,0.34276117599999995,0.227397222,0.23749195100000003,0.16847133499999997,,166.84848484848484,1,L03_NIRS-2019-08-12_004_trial05.txt,118.0
10,823.36,0.399576091,0.56604242,1.0098102519999999,0.11700970299999999,0.09647887540000001,0.7623716230000002,0.19831380599999998,0.308992355,0.31104718499999995,0.17287879800000003,0.19648421300000002,0.130078438,,166.84848484848484,1,L03_NIRS-2019-08-12_004_trial05.txt,118.0
11,824.64,0.437986356,0.626929677,1.09391508,0.124516757,0.11569773300000004,0.7918662750000001,0.176803498,0.276710866,0.28502014900000006,0.12205349000000001,0.155158928,0.09303253079999999,,166.84848484848484,1,L03_NIRS-2019-08-12_004_trial05.txt,118.0
12,825.9200000000001,0.48933370299999995,0.7060857319999999,1.18685038,0.17325926800000002,0.18038981099999998,0.874646295,0.144837071,0.2479001,0.27666850800000004,0.0840639458,0.12351298700000002,0.06638988939999999,,166.84848484848484,1,L03_NIRS-2019-08-12_004_trial05.txt,118.0
13,827.2,0.547677707,0.779840691,1.29711047,0.26818703400000005,0.284234162,0.9621322159999999,0.1090095609,0.22157875100000002,0.27680328099999996,0.052013912800000006,0.1000258927,0.0424337637,,166.84848484848484,1,L03_NIRS-2019-08-12_004_trial05.txt,118.0
14,828.4799999999999,0.6016975500000001,0.8248196990000001,1.40053793,0.363307514,0.368302448,0.989331924,0.08858113100000001,0.200045933,0.266919967,0.01834367756,0.08216772309999999,0.022096717600000003,,166.84848484848484,1,L03_NIRS-2019-08-12_004_trial05.txt,118.0
15,829.7599999999999,0.6336743499999999,0.831893276,1.46469591,0.41407226900000005,0.38892168800000004,0.959542931,0.083348155,0.181875253,0.241498789,-0.020133983789999997,0.05880862619999999,0.0015038674160000004,,166.84848484848484,1,L03_NIRS-2019-08-12_004_trial05.txt,118.0
16,831.04,0.621563358,0.8158247949999999,1.47039298,0.4092892119999999,0.35614437899999996,0.9173807610000001,0.08071368670000001,0.16565741199999998,0.20463566999999996,-0.0569140593,0.0370234333,-0.01684807383,,166.84848484848484,1,L03_NIRS-2019-08-12_004_trial05.txt,118.0
17,832.32,0.528858533,0.733192485,1.3727507200000002,0.34869670900000005,0.283683158,0.855182002,0.0628879859,0.134347532,0.152438538,-0.08939264720000001,0.02324244,-0.032893884299999995,,166.84848484848484,1,L03_NIRS-2019-08-12_004_trial05.txt,118.0
18,833.6,0.41406685000000004,0.6153815490000001,1.2390671100000001,0.290830009,0.22644469800000006,0.789321479,0.033284768199999995,0.0949169126,0.10000395789999998,-0.11696353699999999,0.015148140599999999,-0.0447077982,,166.84848484848484,1,L03_NIRS-2019-08-12_004_trial05.txt,118.0
19,834.8800000000001,0.36162615800000003,0.5577779749999999,1.1886415200000002,0.273893692,0.21493965200000004,0.714256228,0.0052624451200000005,0.0696618792,0.06719545680000001,-0.14030537699999998,0.01074662738,-0.0506022694,,166.84848484848484,1,L03_NIRS-2019-08-12_004_trial05.txt,118.0
20,836.1600000000001,0.360572772,0.567927403,1.2138755600000002,0.26589967999999997,0.208632509,0.649132723,-0.01074754064,0.0604371161,0.048236358199999996,-0.156542381,0.008497242080000002,-0.056625825000000005,,166.84848484848484,1,L03_NIRS-2019-08-12_004_trial05.txt,118.0
21,837.4399999999999,0.3839906410000001,0.606316377,1.2606106700000002,0.251206414,0.18005952399999997,0.628207132,-0.0121227877,0.057929655000000004,0.0336685963,-0.16501594199999997,0.00770709853,-0.0549976892,,166.84848484848484,1,L03_NIRS-2019-08-12_004_trial05.txt,118.0
22,838.7199999999999,0.390959805,0.614184507,1.2779680299999998,0.23050255800000002,0.137480104,0.6382694310000001,-0.0134285157,0.050567423900000005,0.020395815700000007,-0.165878185,0.0033925425999999995,-0.054227691499999994,,166.84848484848484,1,L03_NIRS-2019-08-12_004_trial05.txt,118.0
23,840.0,0.379914459,0.585578707,1.26243576,0.234044484,0.12388275200000001,0.651444906,-0.021762654599999997,0.03370753950000001,0.000985287246,-0.165156401,0.00221232223,-0.05443709049999999,,166.84848484848484,1,L03_NIRS-2019-08-12_004_trial05.txt,118.0
24,841.2800000000001,0.338220273,0.5194324619999999,1.22299516,0.246977645,0.12539116200000003,0.6110571130000001,-0.038391625900000004,0.006545291269,-0.0265715474,-0.172500035,0.00406572527,-0.05685553779999999,,166.84848484848484,1,L03_NIRS-2019-08-12_004_trial05.txt,118.0
25,842.5599999999998,0.291581759,0.45841637999999996,1.18285595,0.24580554000000002,0.12911994799999998,0.546400903,-0.0539683527,-0.0201639452,-0.057655706400000006,-0.187770163,0.004930721129999999,-0.057404064399999996,,166.84848484848484,1,L03_NIRS-2019-08-12_004_trial05.txt,118.0
26,843.8399999999999,0.24633916,0.427696775,1.13494699,0.204194443,0.09710780579999999,0.47982433599999996,-0.0660177716,-0.036952427999999996,-0.0843994098,-0.20191297000000002,0.0048842137,-0.0556115349,,166.84848484848484,1,L03_NIRS-2019-08-12_004_trial05.txt,118.0
27,845.1200000000001,0.213783345,0.419658398,1.0730130299999998,0.144429969,0.04436030599999999,0.45669197200000006,-0.06974511450000001,-0.0463730275,-0.10438709530000001,-0.20374959499999998,0.00662506968,-0.05213904379999999,,166.84848484848484,1,L03_NIRS-2019-08-12_004_trial05.txt,118.0
28,846.4,0.1671732,0.373645878,0.9815151639999999,0.09040463750000001,-0.00835384887,0.428275919,-0.0773738987,-0.0609749452,-0.12416153199999999,-0.202457096,0.00840453377,-0.0507460909,,166.84848484848484,1,L03_NIRS-2019-08-12_004_trial05.txt,118.0
29,847.68,0.10176054749999999,0.273118705,0.8761854039999999,0.047564707899999996,-0.0408730586,0.35439846100000005,-0.0882082989,-0.0765955983,-0.14516723700000003,-0.204746047,0.00908902147,-0.054782102500000006,,166.84848484848484,1,L03_NIRS-2019-08-12_004_trial05.txt,118.0
30,848.96,0.04646352630000001,0.158807798,0.776923352,0.004140887318,-0.0626326022,0.26493902599999997,-0.10180359430000001,-0.08993490840000001,-0.169992164,-0.20963969200000002,0.0098457663,-0.0607814225,,166.84848484848484,1,L03_NIRS-2019-08-12_004_trial05.txt,118.0
31,850.2400000000001,0.003907183399499999,0.0883882026,0.714352064,-0.0433385787,-0.09007994059999999,0.21041241200000002,-0.12055398400000002,-0.0993889823,-0.189262494,-0.21724869600000002,0.0088800183,-0.06466710750000002,,166.84848484848484,1,L03_NIRS-2019-08-12_004_trial05.txt,118.0
32,851.5200000000001,-0.0218386888,0.08721728,0.692671591,-0.0860877261,-0.10774281599999999,0.218403723,-0.135029546,-0.1000835135,-0.19813422500000002,-0.21943221799999998,0.004932553399999999,-0.06547670500000001,,166.84848484848484,1,L03_NIRS-2019-08-12_004_trial05.txt,118.0
33,852.8,-0.0417548172,0.11568520600000001,0.690579497,-0.111013413,-0.113291377,0.24245205199999997,-0.13431432,-0.0906492263,-0.19342599600000004,-0.213163247,0.0026172231099999997,-0.06467690720000001,,166.84848484848484,1,L03_NIRS-2019-08-12_004_trial05.txt,118.0
34,854.0799999999999,-0.04827877309999999,0.135170581,0.698432832,-0.10436541079999999,-0.0941874931,0.25421809100000003,-0.12045774599999999,-0.0773236724,-0.178826494,-0.20539439199999995,2.3913289999999247e-06,-0.06434171320000001,,166.84848484848484,1,L03_NIRS-2019-08-12_004_trial05.txt,118.0
35,855.36,-0.07589352569999999,0.0930804349,0.6604716510000002,-0.11246731090000002,-0.0809113776,0.20282831000000004,-0.11744169,-0.0775061698,-0.17219735799999997,-0.20721861500000002,-0.00881211852,-0.06867753830000002,,166.84848484848484,1,L03_NIRS-2019-08-12_004_trial05.txt,118.0
36,856.64,-0.12378765600000001,0.012067408369999998,0.554290236,-0.166062858,-0.1011049235,0.12253111959999999,-0.12704230300000002,-0.0903376528,-0.181368556,-0.21607561299999997,-0.019654453199999998,-0.072540509,,166.84848484848484,1,L03_NIRS-2019-08-12_004_trial05.txt,118.0
37,857.9200000000001,-0.176287733,-0.06209536029999999,0.40163244000000003,-0.257913677,-0.155809599,0.0592906837,-0.14467819199999998,-0.11130760299999998,-0.200506578,-0.221452375,-0.031193669700000003,-0.0731225549,,166.84848484848484,1,L03_NIRS-2019-08-12_004_trial05.txt,118.0
38,859.2,-0.22436748499999998,-0.09910210409999999,0.25485374,-0.33790302800000005,-0.21207516499999998,0.01770544117,-0.15994528800000002,-0.131519011,-0.21828604699999996,-0.22505138899999996,-0.0341922294,-0.06945261109999999,,166.84848484848484,1,L03_NIRS-2019-08-12_004_trial05.txt,118.0
39,860.4799999999999,-0.259255141,-0.11502027000000001,0.15279079700000003,-0.37804758499999996,-0.23651584899999997,-0.028176032994,-0.16013679600000003,-0.14107438800000002,-0.227227959,-0.221241903,-0.026016302299999995,-0.0665951142,,166.84848484848484,1,L03_NIRS-2019-08-12_004_trial05.txt,118.0
40,861.7599999999999,-0.271194413,-0.12947938499999997,0.12800521699999998,-0.37883826099999995,-0.222580516,-0.0714620758,-0.13752826699999998,-0.12901541900000002,-0.21964398200000002,-0.20942456099999998,-0.01123000128,-0.0632781382,,166.84848484848484,1,L03_NIRS-2019-08-12_004_trial05.txt,118.0
41,863.04,-0.260945607,-0.143922848,0.15993928400000001,-0.356729733,-0.206123995,-0.07493968029999999,-0.11033623,-0.1057197325,-0.204713916,-0.200236566,0.002541164473,-0.0591398214,,166.84848484848484,1,L03_NIRS-2019-08-12_004_trial05.txt,118.0
42,864.32,-0.245803899,-0.13664362400000002,0.214041926,-0.34753255000000005,-0.20602344,-0.031170989390000004,-0.10078640900000002,-0.08487793470000002,-0.18926017599999997,-0.192907655,0.00928030592,-0.0561138688,,166.84848484848484,1,L03_NIRS-2019-08-12_004_trial05.txt,118.0
43,865.6,-0.210396033,-0.07729728550000001,0.28883247700000003,-0.33764692999999996,-0.2025284,0.050736649499999995,-0.109665851,-0.0721205651,-0.176336997,-0.18368087400000002,0.00612836238,-0.0564042003,,166.84848484848484,1,L03_NIRS-2019-08-12_004_trial05.txt,118.0
44,866.8800000000001,-0.16201518899999998,0.012898828569999998,0.382072211,-0.300398992,-0.170329384,0.124963888,-0.128302208,-0.06721052079999999,-0.159939256,-0.173296435,-0.004162923638999999,-0.0637974442,,166.84848484848484,1,L03_NIRS-2019-08-12_004_trial05.txt,118.0
45,868.1600000000001,-0.115404685,0.0897649308,0.46719404299999995,-0.236692859,-0.11676624180000002,0.15365822099999998,-0.148594421,-0.069642333,-0.14568049999999996,-0.17761342400000002,-0.0179565608,-0.0801058362,,166.84848484848484,1,L03_NIRS-2019-08-12_004_trial05.txt,118.0
46,869.4399999999999,-0.09968391039999999,0.09967713410000001,0.491872168,-0.19913318500000002,-0.08249588840000001,0.141340436,-0.162349128,-0.07495340410000001,-0.13782296,-0.186365333,-0.0347438563,-0.10329930629999999,,166.84848484848484,1,L03_NIRS-2019-08-12_004_trial05.txt,118.0
47,870.7199999999999,-0.08329768600000001,0.08050242789999999,0.470137841,-0.19075487200000002,-0.06698086720000002,0.15631884999999998,-0.159934916,-0.06832553430000002,-0.131912255,-0.187897562,-0.0499313068,-0.12313724000000001,,166.84848484848484,1,L03_NIRS-2019-08-12_004_trial05.txt,118.0
48,872.0,-0.03948907769,0.10060816269999999,0.45993168100000004,-0.181649334,-0.0561906866,0.20147638099999998,-0.15343801799999998,-0.0484832374,-0.123685148,-0.18006331599999997,-0.05955353570000001,-0.137591639,,166.84848484848484,1,L03_NIRS-2019-08-12_004_trial05.txt,118.0
49,873.2800000000001,0.035249888259999994,0.201961251,0.5089381169999999,-0.15288211300000004,-0.028346553929999997,0.23938900000000002,-0.144952355,-0.014148661534,-0.1050659566,-0.159435406,-0.0598678612,-0.146680918,,166.84848484848484,1,L03_NIRS-2019-08-12_004_trial05.txt,118.0
50,874.5599999999998,0.12212536109999998,0.340857021,0.612116475,-0.08450301549999999,0.02841388991,0.252273032,-0.13846539799999996,0.02147140573,-0.07875119979999999,-0.138471309,-0.057664703,-0.152566268,,166.84848484848484,1,L03_NIRS-2019-08-12_004_trial05.txt,118.0
51,875.8399999999999,0.20643749900000002,0.45079914500000007,0.720670257,0.014597533671000001,0.0943685241,0.26694898499999997,-0.14099848099999998,0.0447803485,-0.0537060831,-0.12014627600000001,-0.051112273500000006,-0.152626874,,166.84848484848484,1,L03_NIRS-2019-08-12_004_trial05.txt,118.0
52,877.1200000000001,0.228746902,0.449839576,0.766531733,0.0816006744,0.120239019,0.274101699,-0.17088107200000002,0.033115246999999993,-0.04732711270000001,-0.121770343,-0.05481551329999999,-0.15218795000000002,,166.84848484848484,1,L03_NIRS-2019-08-12_004_trial05.txt,118.0
53,878.4,0.19006091600000002,0.362756583,0.730517155,0.084939446,0.08904876319999999,0.26451495199999997,-0.22154495500000002,-0.007049340431000001,-0.06675531770000001,-0.133993164,-0.0652268094,-0.15715300000000001,,166.84848484848484,1,L03_NIRS-2019-08-12_004_trial05.txt,118.0
54,879.68,0.143063493,0.284347828,0.6655886590000002,0.06341888309999999,0.0484313624,0.24483212599999998,-0.269941183,-0.04842227240000001,-0.1001273381,-0.145858671,-0.0753527976,-0.16297579199999998,,166.84848484848484,1,L03_NIRS-2019-08-12_004_trial05.txt,118.0
55,880.96,0.12372510300000002,0.27547851300000004,0.6420399390000001,0.0653782953,0.0388382318,0.21391131199999996,-0.29741454,-0.07377888739999999,-0.13381104400000002,-0.152011132,-0.0752425274,-0.166971739,,166.84848484848484,1,L03_NIRS-2019-08-12_004_trial05.txt,118.0
56,882.2400000000001,0.118879917,0.320029845,0.6739480999999999,0.11027914400000001,0.057123817,0.180360838,-0.29465836,-0.07788147720000001,-0.15649666899999998,-0.153371447,-0.0679388644,-0.168969852,,166.84848484848484,1,L03_NIRS-2019-08-12_004_trial05.txt,118.0
57,883.5200000000001,0.0938039483,0.3550536650000001,0.713468896,0.172540211,0.0782363395,0.17141505800000004,-0.27296638500000003,-0.0694668268,-0.16394836200000001,-0.15486338800000002,-0.0606731551,-0.166155497,,166.84848484848484,1,L03_NIRS-2019-08-12_004_trial05.txt,118.0
58,884.8,0.0537799252,0.34665139399999995,0.7235125649999999,0.228174249,0.0798386083,0.196268367,-0.250553963,-0.06315665280000002,-0.165011959,-0.15277858600000002,-0.0532771203,-0.15740792199999998,,166.84848484848484,1,L03_NIRS-2019-08-12_004_trial05.txt,118.0
59,886.0799999999999,-0.00643185421,0.280289626,0.703364655,0.25012601300000004,0.05845868059999999,0.22024745200000004,-0.241540272,-0.0724440221,-0.16826736800000003,-0.15445616900000003,-0.0494650471,-0.148653164,,166.84848484848484,1,L03_NIRS-2019-08-12_004_trial05.txt,118.0
60,887.36,-0.0488084943,0.223387618,0.6788356139999999,0.24121141499999998,0.0354697099,0.20840183399999995,-0.246744154,-0.0906631297,-0.17958033399999998,-0.160505009,-0.0471238403,-0.146258169,,166.84848484848484,1,L03_NIRS-2019-08-12_004_trial05.txt,118.0
61,888.64,-0.036959228499999996,0.233070634,0.682797014,0.228338966,0.0336718177,0.18163691999999995,-0.260636606,-0.1018927301,-0.191881367,-0.168952791,-0.0434100733,-0.14789022599999999,,166.84848484848484,1,L03_NIRS-2019-08-12_004_trial05.txt,118.0
62,889.9200000000001,0.022823705030000002,0.29937445300000004,0.725908123,0.235141161,0.0476053637,0.195478603,-0.273026337,-0.10376318899999999,-0.199669515,-0.177997095,-0.0386420843,-0.15075597200000002,,166.84848484848484,1,L03_NIRS-2019-08-12_004_trial05.txt,118.0
63,891.2,0.0850087287,0.379119795,0.795870225,0.26333447299999996,0.0674359586,0.260361828,-0.27744202100000004,-0.0959985813,-0.19968572499999998,-0.18726301900000003,-0.035762260700000006,-0.15449315300000005,,166.84848484848484,1,L03_NIRS-2019-08-12_004_trial05.txt,118.0
64,892.4799999999999,0.11333361,0.431441094,0.8677030350000001,0.295493266,0.0856954341,0.330498795,-0.27761403300000004,-0.0847698972,-0.19441488600000004,-0.195323098,-0.037545578999999996,-0.15642252799999998,,166.84848484848484,1,L03_NIRS-2019-08-12_004_trial05.txt,118.0
65,893.7599999999999,0.1037236466,0.43064376400000004,0.892783301,0.30291645100000003,0.0875974691,0.356145802,-0.276649904,-0.08464809110000002,-0.198731037,-0.201351961,-0.0403467007,-0.158357377,,166.84848484848484,1,L03_NIRS-2019-08-12_004_trial05.txt,118.0
66,895.04,0.0700300991,0.38261439399999997,0.842332777,0.269235702,0.0726919409,0.31844533799999997,-0.27390117500000005,-0.09835292519999998,-0.22238029899999998,-0.208498866,-0.044338765599999996,-0.1585688,,166.84848484848484,1,L03_NIRS-2019-08-12_004_trial05.txt,118.0
67,896.32,0.0313115955,0.33156289399999994,0.742178835,0.215073867,0.039814794199999996,0.24941621400000002,-0.260801521,-0.11045332300000002,-0.254202171,-0.220693742,-0.045750268499999996,-0.154329797,,166.84848484848484,1,L03_NIRS-2019-08-12_004_trial05.txt,118.0
68,897.6,0.0017515837159999999,0.300125987,0.6389606680000001,0.15109914600000002,-0.00493524857,0.17932438099999998,-0.24494945399999998,-0.11488849100000001,-0.277886945,-0.233039877,-0.0455122309,-0.146427294,,166.84848484848484,1,L03_NIRS-2019-08-12_004_trial05.txt,118.0
69,898.8800000000001,-0.00898400872,0.286325183,0.5873345290000002,0.10299632699999998,-0.0396756936,0.142126917,-0.240813787,-0.116671898,-0.28621871,-0.24235412199999998,-0.04610236559999999,-0.139581368,,166.84848484848484,1,L03_NIRS-2019-08-12_004_trial05.txt,118.0
70,900.1600000000001,-0.01369087131,0.278880796,0.60522159,0.0842026568,-0.044934209399999994,0.12269858600000001,-0.247907593,-0.110195541,-0.280974805,-0.24988165500000004,-0.0482464759,-0.137795869,,166.84848484848484,1,L03_NIRS-2019-08-12_004_trial05.txt,118.0
71,901.4399999999999,0.019038210990000002,0.29651099599999997,0.6919126659999999,0.12373786130000002,-0.012072869210999999,0.12981943,-0.259041286,-0.09446822749999999,-0.26980993999999997,-0.253752286,-0.047146866800000006,-0.139721501,,166.84848484848484,1,L03_NIRS-2019-08-12_004_trial05.txt,118.0
72,902.7199999999999,0.08604888289999998,0.34388646100000003,0.7919860090000002,0.183952843,0.033254922199999995,0.165294631,-0.277186759,-0.0803502261,-0.262733064,-0.25087664200000004,-0.0445313772,-0.14569130600000002,,166.84848484848484,1,L03_NIRS-2019-08-12_004_trial05.txt,118.0
73,904.0,0.151101349,0.394853981,0.839599327,0.228117152,0.0625854706,0.21908612,-0.30255046300000005,-0.0758870206,-0.26803554799999996,-0.246055645,-0.0453780452,-0.15427461200000003,,166.84848484848484,1,L03_NIRS-2019-08-12_004_trial05.txt,118.0
74,905.2800000000001,0.164070234,0.437996336,0.8434412090000001,0.245637718,0.059897785800000006,0.255069402,-0.326797966,-0.07583311480000002,-0.27424961500000006,-0.24504827799999998,-0.046352651800000005,-0.163670062,,166.84848484848484,1,L03_NIRS-2019-08-12_004_trial05.txt,118.0
75,906.5599999999998,0.149431918,0.48271367200000004,0.8661439080000001,0.250538044,0.055196252900000006,0.27585714100000003,-0.338284591,-0.07406735860000001,-0.268780042,-0.242167813,-0.0480685278,-0.171507852,,166.84848484848484,1,L03_NIRS-2019-08-12_004_trial05.txt,118.0
76,907.8399999999999,0.148756581,0.5274855119999999,0.92970031,0.251354988,0.0704432876,0.278661296,-0.338401937,-0.0683144863,-0.254810356,-0.234666377,-0.0534197029,-0.17828714099999998,,166.84848484848484,1,L03_NIRS-2019-08-12_004_trial05.txt,118.0
77,909.1200000000001,0.174914841,0.5726383509999999,1.026639857,0.276256019,0.11216293070000001,0.30144573399999997,-0.32105478100000007,-0.05035157020000001,-0.236783308,-0.227112653,-0.060424707700000004,-0.181498051,,166.84848484848484,1,L03_NIRS-2019-08-12_004_trial05.txt,118.0
78,910.4,0.215851237,0.610421708,1.1085638599999998,0.319474115,0.156770138,0.35653071199999997,-0.288615236,-0.02175463191,-0.220905442,-0.219134015,-0.06804671259999999,-0.181881094,,166.84848484848484,1,L03_NIRS-2019-08-12_004_trial05.txt,118.0
79,911.68,0.247672598,0.6433122779999999,1.15213681,0.357459784,0.196142035,0.42370564,-0.265724217,0.0017631008570000001,-0.21395334299999996,-0.213961808,-0.0809605063,-0.183372978,,166.84848484848484,1,L03_NIRS-2019-08-12_004_trial05.txt,118.0
80,912.96,0.22593064499999999,0.6316984769999999,1.14330546,0.36825094500000005,0.215028629,0.455707846,-0.27045699700000003,0.003883999958999999,-0.21891473400000003,-0.219314024,-0.09977274259999999,-0.192108933,,166.84848484848484,1,L03_NIRS-2019-08-12_004_trial05.txt,118.0
81,914.2400000000001,0.16871540000000002,0.5844198250000001,1.09375517,0.350474552,0.22027007299999996,0.43398456,-0.29590337899999997,-0.0103981397,-0.23412368499999997,-0.23511098700000002,-0.117631982,-0.20658408,,166.84848484848484,1,L03_NIRS-2019-08-12_004_trial05.txt,118.0
82,915.5200000000001,0.14534245499999998,0.540921934,1.0358337499999997,0.329659176,0.228375371,0.40662149799999997,-0.320053013,-0.0287771397,-0.255541892,-0.254631675,-0.12683965200000002,-0.21947496099999997,,166.84848484848484,1,L03_NIRS-2019-08-12_004_trial05.txt,118.0
83,916.8,0.19548489400000002,0.5450497480000001,0.9937786369999999,0.31118326100000004,0.242331585,0.400843434,-0.333103266,-0.0416537616,-0.27879295600000004,-0.268850461,-0.13016075,-0.226269522,,166.84848484848484,1,L03_NIRS-2019-08-12_004_trial05.txt,118.0
84,918.0799999999999,0.28497058999999997,0.605432518,0.9918391410000001,0.30700054600000004,0.253335551,0.420305571,-0.335792505,-0.046850208100000006,-0.294562357,-0.28062298299999994,-0.13186626699999998,-0.226789094,,166.84848484848484,1,L03_NIRS-2019-08-12_004_trial05.txt,118.0
85,919.36,0.355519847,0.685355369,1.0479711699999998,0.33192238500000004,0.275677383,0.465188412,-0.33303827399999997,-0.048028654500000004,-0.298987831,-0.290142343,-0.13772952000000002,-0.22683798200000002,,166.84848484848484,1,L03_NIRS-2019-08-12_004_trial05.txt,118.0
86,920.6400000000001,0.3789183590000001,0.752034873,1.15300473,0.38501120200000005,0.304114411,0.508483835,-0.33106543299999996,-0.048853827,-0.29613603099999997,-0.2983451200000001,-0.14399463899999998,-0.22985205199999997,,166.84848484848484,1,L03_NIRS-2019-08-12_004_trial05.txt,118.0
87,921.9199999999998,0.384719321,0.799633362,1.28405129,0.462062389,0.34635726599999994,0.5557256959999999,-0.33536020899999996,-0.0491768033,-0.292197153,-0.30682860500000003,-0.149950613,-0.23624970999999997,,166.84848484848484,1,L03_NIRS-2019-08-12_004_trial05.txt,118.0
88,923.1999999999998,0.41405892599999994,0.83370112,1.376207,0.528325239,0.377893451,0.602959444,-0.33589786899999996,-0.041695511000000005,-0.29112244,-0.310667185,-0.15174402,-0.24691738800000002,,166.84848484848484,1,L03_NIRS-2019-08-12_004_trial05.txt,118.0
89,924.4800000000001,0.470042884,0.846433162,1.3802406999999999,0.556363532,0.376005066,0.639716897,-0.333079011,-0.0342211184,-0.29852934000000003,-0.31927436400000003,-0.14996507699999997,-0.25510463400000005,,166.84848484848484,1,L03_NIRS-2019-08-12_004_trial05.txt,118.0
90,925.7599999999999,0.463412185,0.7661217859999999,1.20772639,0.47939072400000005,0.302649263,0.5547667279999999,-0.351380335,-0.054505958900000005,-0.334638923,-0.343413895,-0.153156726,-0.265795875,,166.84848484848484,1,L03_NIRS-2019-08-12_004_trial05.txt,118.0
91,927.04,0.38580984900000004,0.5975782190000001,0.930107789,0.33313509,0.188859214,0.375417077,-0.39280320799999996,-0.11362310779999998,-0.397080372,-0.377515365,-0.166631005,-0.28062709100000005,,166.84848484848484,1,L03_NIRS-2019-08-12_004_trial05.txt,118.0
92,927.872,0.30796255333333333,0.46089088333333333,0.7399388066666667,0.23948332333333333,0.11805691666666666,0.23583166666666666,-0.43060320999999996,-0.16646421,-0.4428215633333334,-0.40378781,-0.18068029333333335,-0.29040641333333334,,166.84848484848484,1,L03_NIRS-2019-08-12_004_trial05.txt,118.0
