,time,S3_D4_HbO,S3_D3_HbO,S2_D3_HbO,S2_D2_HbO,S1_D2_HbO,S1_D1_HbO,S3_D4_HbR,S3_D3_HbR,S2_D3_HbR,S2_D2_HbR,S1_D2_HbR,S1_D1_HbR,Var14,score,labelnum,filename,total_time
0,17.216,1.90716159,0.0036037537899999993,-1.5005299400000003,-1.9502144800000003,-2.32446214,-5.60608264,1.4783092000000002,0.46687737200000007,0.55481539,0.789780841,0.618867547,1.8368891800000005,,115.9090909090909,0,L03_NIRS-2019-08-13_006_trial01.txt,175.0
1,18.496000000000002,2.01961971,0.1000656236,-1.4346867,-1.9155942200000002,-2.2447414,-5.50148621,1.42810328,0.4238275880000001,0.5207740180000001,0.7314414159999998,0.5791667620000001,1.78418652,,115.9090909090909,0,L03_NIRS-2019-08-13_006_trial01.txt,175.0
2,19.776,2.04327738,0.0876329331,-1.40795742,-1.90004363,-2.2053156599999997,-5.4464070300000005,1.3967598,0.4023528270000001,0.492352287,0.6663769540000001,0.541298039,1.73652971,,115.9090909090909,0,L03_NIRS-2019-08-13_006_trial01.txt,175.0
3,21.056,1.9776417699999995,-0.0007398319399999985,-1.4070572000000001,-1.90547112,-2.20556685,-5.4311397,1.3684587499999998,0.39233361899999997,0.46450239499999996,0.600487569,0.504725525,1.69449045,,115.9090909090909,0,L03_NIRS-2019-08-13_006_trial01.txt,175.0
4,22.336,1.8745281399999996,-0.1001523363,-1.4354850600000002,-1.95422,-2.22841466,-5.4437666899999995,1.3433151300000001,0.38723830300000006,0.431021177,0.5471811860000001,0.4702522559999999,1.6566222200000003,,115.9090909090909,0,L03_NIRS-2019-08-13_006_trial01.txt,175.0
5,23.616,1.8797168,-0.07687081622,-1.4272597,-1.9928107699999997,-2.2142312299999998,-5.421669939999999,1.3316490900000002,0.391252803,0.399770947,0.509362917,0.44090839800000003,1.6243096599999998,,115.9090909090909,0,L03_NIRS-2019-08-13_006_trial01.txt,175.0
6,24.896,2.09496609,0.1527576689,-1.2997741600000003,-1.9649278000000003,-2.10164369,-5.29968726,1.3304091400000002,0.4102376339999999,0.39261716300000005,0.48541541,0.41757207100000004,1.59800146,,115.9090909090909,0,L03_NIRS-2019-08-13_006_trial01.txt,175.0
7,26.176,2.4566613,0.496265483,-1.066430452,-1.85402618,-1.90526741,-5.09060618,1.3301681300000001,0.44175012999999996,0.41516080000000005,0.464503848,0.39389604799999994,1.57700453,,115.9090909090909,0,L03_NIRS-2019-08-13_006_trial01.txt,175.0
8,27.456,2.78941477,0.7819745690000002,-0.851332012,-1.7396035399999998,-1.7218042500000004,-4.89393412,1.31601729,0.4665389790000001,0.440264249,0.43881040700000007,0.361920422,1.55573676,,115.9090909090909,0,L03_NIRS-2019-08-13_006_trial01.txt,175.0
9,28.736000000000008,2.95899123,0.8904410890000001,-0.760344596,-1.69360365,-1.6265698999999998,-4.7982206,1.27764386,0.4623198639999999,0.43479329099999997,0.402767081,0.31698674,1.52715368,,115.9090909090909,0,L03_NIRS-2019-08-13_006_trial01.txt,175.0
10,30.016,2.92322343,0.8028689319999998,-0.8394441449999999,-1.74925951,-1.6398916499999998,-4.83927914,1.19924229,0.4090561549999999,0.377583073,0.351279386,0.261334664,1.4856058799999998,,115.9090909090909,0,L03_NIRS-2019-08-13_006_trial01.txt,175.0
11,31.296,2.76303666,0.6100502239999999,-1.024896666,-1.8683833500000002,-1.72742638,-4.966175649999999,1.1014088699999998,0.32515898900000006,0.28809531299999996,0.28960184,0.21072422500000001,1.4417511900000002,,115.9090909090909,0,L03_NIRS-2019-08-13_006_trial01.txt,175.0
12,32.576,2.6353270899999997,0.46724722399999996,-1.1660219200000002,-1.9448447899999999,-1.80849872,-5.06696003,1.0139363510000003,0.240967338,0.20904204600000004,0.225377077,0.177849529,1.40742925,,115.9090909090909,0,L03_NIRS-2019-08-13_006_trial01.txt,175.0
13,33.85600000000001,2.61691027,0.444374159,-1.1622428999999999,-1.95390724,-1.8378032700000002,-5.090927559999999,0.9453180539999998,0.180123331,0.17491585700000004,0.16961943300000001,0.159280535,1.38342121,,115.9090909090909,0,L03_NIRS-2019-08-13_006_trial01.txt,175.0
14,35.136,2.62421718,0.461245493,-1.07291172,-1.9459289799999997,-1.85182372,-5.09539904,0.887547268,0.14522555399999998,0.18053341900000003,0.126411436,0.143196562,1.3649012099999998,,115.9090909090909,0,L03_NIRS-2019-08-13_006_trial01.txt,175.0
15,36.416,2.56433413,0.43154856499999994,-1.01270871,-1.95778319,-1.8950725600000002,-5.12756605,0.834932574,0.11921063699999998,0.193278737,0.0936150351,0.126799878,1.3516731199999998,,115.9090909090909,0,L03_NIRS-2019-08-13_006_trial01.txt,175.0
16,37.696,2.44348268,0.34617642600000004,-1.03211127,-1.9902426300000002,-1.9619511299999999,-5.184074870000001,0.797874989,0.0929129322,0.19047458899999997,0.0739130964,0.111088932,1.34210172,,115.9090909090909,0,L03_NIRS-2019-08-13_006_trial01.txt,175.0
17,38.976,2.3666331499999997,0.290746013,-1.08296531,-2.01138052,-1.99336447,-5.21370668,0.7855717769999999,0.0751616147,0.17213762300000002,0.060195487299999996,0.10087974529999999,1.3367142900000002,,115.9090909090909,0,L03_NIRS-2019-08-13_006_trial01.txt,175.0
18,40.256,2.4001379700000003,0.3436516399999999,-1.07637692,-1.9919491900000001,-1.9594125799999997,-5.179172599999999,0.797027149,0.07807698290000001,0.159772049,0.05206055810000001,0.10103461340000001,1.3430497,,115.9090909090909,0,L03_NIRS-2019-08-13_006_trial01.txt,175.0
19,41.536,2.51168748,0.487708602,-0.9752775290000001,-1.9100926899999997,-1.88980436,-5.094502670000001,0.835382538,0.1096707906,0.17237332099999997,0.0489599016,0.111292532,1.3652330400000001,,115.9090909090909,0,L03_NIRS-2019-08-13_006_trial01.txt,175.0
20,42.816,2.6129425,0.589725657,-0.8723614850000001,-1.84599335,-1.8492981600000005,-5.04038836,0.8640051889999999,0.141916976,0.18791262999999997,0.047387934500000006,0.120847744,1.38666582,,115.9090909090909,0,L03_NIRS-2019-08-13_006_trial01.txt,175.0
21,44.09599999999999,2.62580229,0.5403014640000001,-0.824256099,-1.8249647000000002,-1.86443577,-5.06463341,0.8570818820000001,0.14378085899999998,0.190742574,0.043229393100000006,0.123516139,1.39010671,,115.9090909090909,0,L03_NIRS-2019-08-13_006_trial01.txt,175.0
22,45.37599999999999,2.5920604099999998,0.378170783,-0.8465036179999998,-1.83273416,-1.9171778400000001,-5.1268685099999995,0.8390548969999999,0.124956738,0.18312060000000002,0.03574201640000001,0.124176378,1.38207755,,115.9090909090909,0,L03_NIRS-2019-08-13_006_trial01.txt,175.0
23,46.65599999999999,2.58510247,0.2126016,-0.8899855829999999,-1.84778238,-1.9619447800000003,-5.17143586,0.822453994,0.09947316240000001,0.17200307199999998,0.0285562733,0.129289743,1.3705984,,115.9090909090909,0,L03_NIRS-2019-08-13_006_trial01.txt,175.0
24,47.93599999999999,2.6462757100000003,0.13604005800000002,-0.8979714440000001,-1.8625672800000004,-1.98338833,-5.18172555,0.816276787,0.08150538430000001,0.16685247099999997,0.0196824871,0.13847291499999997,1.36036219,,115.9090909090909,0,L03_NIRS-2019-08-13_006_trial01.txt,175.0
25,49.215999999999994,2.7429766,0.14264329,-0.89226434,-1.8925311099999997,-2.0152109300000003,-5.18415578,0.82725774,0.0751054257,0.164619097,0.003843515024,0.14488623100000003,1.35647049,,115.9090909090909,0,L03_NIRS-2019-08-13_006_trial01.txt,175.0
26,50.495999999999995,2.7893849699999995,0.15331840000000002,-0.9273728370000001,-1.93548672,-2.08255852,-5.215543660000001,0.855144943,0.0831067753,0.16228731899999999,-0.01418650655,0.146114637,1.3630228799999997,,115.9090909090909,0,L03_NIRS-2019-08-13_006_trial01.txt,175.0
27,51.775999999999996,2.76606985,0.11083634149999999,-1.018198597,-1.9865253299999999,-2.15372038,-5.27862542,0.880710985,0.09575505649999999,0.15442631699999998,-0.0215818223,0.146389878,1.37693037,,115.9090909090909,0,L03_NIRS-2019-08-13_006_trial01.txt,175.0
28,53.056,2.6917073799999995,0.026000263669999996,-1.09461882,-2.00840359,-2.18326381,-5.3372642599999995,0.8840089109999999,0.09413170480000001,0.14555694699999996,-0.0159108873,0.152481105,1.39265586,,115.9090909090909,0,L03_NIRS-2019-08-13_006_trial01.txt,175.0
29,54.336,2.64974847,-0.023378528599999997,-1.1173576299999997,-2.0063989399999995,-2.17233967,-5.351849550000001,0.8989959649999999,0.10268489539999999,0.15488648499999996,-0.00028465312300000027,0.168333177,1.4170141299999999,,115.9090909090909,0,L03_NIRS-2019-08-13_006_trial01.txt,175.0
30,55.616,2.6548216199999994,0.0025662569569999995,-1.0896256199999999,-1.99459795,-2.1390025699999997,-5.3203533499999995,0.9164822209999999,0.111985888,0.171347569,0.0186015569,0.18836986100000003,1.4431718099999997,,115.9090909090909,0,L03_NIRS-2019-08-13_006_trial01.txt,175.0
31,56.896,2.66111432,0.05751885960000001,-1.05649795,-1.98328901,-2.1195721599999997,-5.2861768300000005,0.9230366570000001,0.10896788000000002,0.18259156599999998,0.0292381772,0.20311150800000002,1.45878013,,115.9090909090909,0,L03_NIRS-2019-08-13_006_trial01.txt,175.0
32,58.176,2.64914644,0.08357963930000001,-1.0776042399999999,-1.99280195,-2.13682763,-5.29212492,0.9285187599999999,0.0943270202,0.176215915,0.0278904239,0.20646566100000002,1.4586981800000003,,115.9090909090909,0,L03_NIRS-2019-08-13_006_trial01.txt,175.0
33,59.456,2.5989577099999996,0.0655807206,-1.1402632099999999,-2.01664844,-2.16513044,-5.339739249999999,0.924410076,0.0671912913,0.15534447899999998,0.016917961500000002,0.197852785,1.4498173,,115.9090909090909,0,L03_NIRS-2019-08-13_006_trial01.txt,175.0
34,60.73599999999999,2.5733945599999997,0.0535993302,-1.1833448,-2.0370717000000007,-2.16924164,-5.38459976,0.926561463,0.048277722499999995,0.137488287,0.00963820675,0.187098347,1.4448112499999999,,115.9090909090909,0,L03_NIRS-2019-08-13_006_trial01.txt,175.0
35,62.016,2.58647086,0.0845775172,-1.1666318900000001,-2.0421142100000003,-2.14893863,-5.39419289,0.932219315,0.0483771619,0.135357318,0.01058164146,0.182843222,1.45148597,,115.9090909090909,0,L03_NIRS-2019-08-13_006_trial01.txt,175.0
36,63.29599999999999,2.59445221,0.12218968699999999,-1.1318236599999998,-2.0344037,-2.13921759,-5.37825068,0.933947206,0.06957369849999999,0.144218057,0.015747001599999998,0.187705909,1.46746067,,115.9090909090909,0,L03_NIRS-2019-08-13_006_trial01.txt,175.0
37,64.576,2.58453212,0.131806805,-1.1155348799999998,-2.00447374,-2.14662268,-5.3525013800000005,0.9355841899999999,0.1004005472,0.15810205100000002,0.025652273599999997,0.1967746,1.48192144,,115.9090909090909,0,L03_NIRS-2019-08-13_006_trial01.txt,175.0
38,65.856,2.5714824000000003,0.1054430323,-1.1139694900000001,-1.9472346600000006,-2.1557798100000003,-5.332577710000001,0.9368103840000002,0.12165172800000001,0.17443034,0.0400212381,0.20488874899999998,1.48442525,,115.9090909090909,0,L03_NIRS-2019-08-13_006_trial01.txt,175.0
39,67.136,2.5673518,0.06897369710000001,-1.09081475,-1.89453772,-2.16067783,-5.330943329999999,0.9400407489999999,0.13316344500000002,0.19686530000000002,0.06453074,0.21075158100000002,1.47783811,,115.9090909090909,0,L03_NIRS-2019-08-13_006_trial01.txt,175.0
40,68.41600000000001,2.57358656,0.0762250308,-1.014867844,-1.84832859,-2.1527449599999997,-5.328597180000001,0.9426236610000001,0.13974088700000004,0.22394890800000003,0.09190292339999999,0.21538705499999997,1.47603443,,115.9090909090909,0,L03_NIRS-2019-08-13_006_trial01.txt,175.0
41,69.696,2.6479193200000006,0.175650553,-0.895648727,-1.7817897199999997,-2.11779202,-5.27293065,0.966411523,0.15550471700000001,0.253031198,0.120475065,0.224056605,1.4888016,,115.9090909090909,0,L03_NIRS-2019-08-13_006_trial01.txt,175.0
42,70.976,2.7237594000000005,0.296633959,-0.805713396,-1.71436198,-2.06736991,-5.197520889999999,0.9883382780000002,0.167981392,0.270680459,0.13951139299999998,0.23186151700000002,1.50277175,,115.9090909090909,0,L03_NIRS-2019-08-13_006_trial01.txt,175.0
43,72.256,2.7323694,0.330959663,-0.795442545,-1.66011831,-2.0263892999999995,-5.145036999999999,0.9984915990000001,0.179479894,0.269293939,0.14458797699999998,0.23685319000000002,1.51192167,,115.9090909090909,0,L03_NIRS-2019-08-13_006_trial01.txt,175.0
44,73.53599999999999,2.67714311,0.251108491,-0.8517342639999999,-1.6408093700000002,-2.00525644,-5.13649327,1.0038803399999998,0.195039918,0.256229374,0.14177853599999998,0.23705587899999997,1.5114144600000001,,115.9090909090909,0,L03_NIRS-2019-08-13_006_trial01.txt,175.0
45,74.81599999999999,2.60925954,0.1314815163,-0.9088556380000001,-1.64628042,-2.0025968,-5.16436554,1.00631636,0.204280925,0.24351069600000003,0.13382081,0.231624672,1.50170557,,115.9090909090909,0,L03_NIRS-2019-08-13_006_trial01.txt,175.0
46,76.09599999999999,2.5651088800000004,0.04063546919999999,-0.940855884,-1.68825345,-2.03371193,-5.21864964,1.0051274000000001,0.20275489899999996,0.23638981599999997,0.126563113,0.221455542,1.48930123,,115.9090909090909,0,L03_NIRS-2019-08-13_006_trial01.txt,175.0
47,77.376,2.5629042099999997,0.01689442731,-0.9559532439999998,-1.71788217,-2.07257543,-5.2602012899999995,1.0056783599999999,0.20349724,0.22785649400000002,0.11601711299999999,0.21466326900000002,1.48399453,,115.9090909090909,0,L03_NIRS-2019-08-13_006_trial01.txt,175.0
48,78.65599999999999,2.5998158,0.0580961293,-0.9601084070000001,-1.7028177500000001,-2.0728899600000004,-5.25552061,1.00646374,0.20706254699999999,0.22024234699999998,0.10800982299999999,0.215551097,1.48707747,,115.9090909090909,0,L03_NIRS-2019-08-13_006_trial01.txt,175.0
49,79.93599999999999,2.63005722,0.0958865576,-0.975649035,-1.6797926300000001,-2.04474258,-5.23891288,0.995857035,0.198722596,0.21225785199999997,0.105396037,0.218490179,1.48788901,,115.9090909090909,0,L03_NIRS-2019-08-13_006_trial01.txt,175.0
50,81.216,2.63425684,0.077742211,-0.999854309,-1.67511866,-2.02944009,-5.24123311,0.988188893,0.19239411899999997,0.20616688400000002,0.10452217800000001,0.219113964,1.4847963800000001,,115.9090909090909,0,L03_NIRS-2019-08-13_006_trial01.txt,175.0
51,82.49600000000001,2.6334119399999993,0.0415286309,-0.9926664479999999,-1.68655783,-2.03972776,-5.25322036,0.9923434849999999,0.200965338,0.207720054,0.10977726299999999,0.218922155,1.4810956699999998,,115.9090909090909,0,L03_NIRS-2019-08-13_006_trial01.txt,175.0
52,83.776,2.6495255999999996,0.04212899169999999,-0.942066506,-1.6744595900000003,-2.0503245800000003,-5.246479099999999,1.005876322,0.21454031799999998,0.21563094500000002,0.11798881000000001,0.22262157000000005,1.47927936,,115.9090909090909,0,L03_NIRS-2019-08-13_006_trial01.txt,175.0
53,85.056,2.67373805,0.07293409179999999,-0.8886528690000001,-1.6477028100000002,-2.04974987,-5.22764067,1.0178711800000002,0.219617848,0.220951875,0.12674447100000003,0.226908734,1.47555049,,115.9090909090909,0,L03_NIRS-2019-08-13_006_trial01.txt,175.0
54,86.336,2.6792118800000004,0.0964772577,-0.8756750849999999,-1.62478008,-2.03821177,-5.218881930000001,1.01374655,0.210267826,0.21405149199999998,0.12580972499999998,0.22889523100000003,1.4677349999999998,,115.9090909090909,0,L03_NIRS-2019-08-13_006_trial01.txt,175.0
55,87.61600000000001,2.66127582,0.083098304,-0.904532498,-1.6306391700000002,-2.0240093400000005,-5.22735699,0.993622209,0.188174561,0.19637736400000003,0.11545818,0.22292753000000004,1.45738479,,115.9090909090909,0,L03_NIRS-2019-08-13_006_trial01.txt,175.0
56,88.89599999999999,2.6359830000000004,0.045692831700000006,-0.928401551,-1.6495367899999998,-2.0174380600000004,-5.23750061,0.963853883,0.16335451500000003,0.178822081,0.0961706698,0.20692177799999997,1.44471432,,115.9090909090909,0,L03_NIRS-2019-08-13_006_trial01.txt,175.0
57,90.17599999999999,2.64137986,0.038431082500000005,-0.8937825089999999,-1.6483071500000002,-2.01378184,-5.23174107,0.9420763879999999,0.15312665600000003,0.175605905,0.0762956573,0.18471422100000004,1.4283813100000002,,115.9090909090909,0,L03_NIRS-2019-08-13_006_trial01.txt,175.0
58,91.456,2.7167535800000002,0.1168980071,-0.8072809130000002,-1.6161199400000001,-1.9823799100000001,-5.19742045,0.9335901870000001,0.154567243,0.184979823,0.0663454205,0.163260031,1.4136638000000001,,115.9090909090909,0,L03_NIRS-2019-08-13_006_trial01.txt,175.0
59,92.73599999999999,2.87586434,0.280235114,-0.686308369,-1.54128243,-1.88101536,-5.10545885,0.9361811770000001,0.15820794900000001,0.200344459,0.0720822423,0.14983508999999998,1.4060292699999999,,115.9090909090909,0,L03_NIRS-2019-08-13_006_trial01.txt,175.0
60,94.01599999999999,3.0404276599999998,0.44466009200000006,-0.570062965,-1.4401739500000004,-1.7361485599999997,-4.9814963400000005,0.9363379359999999,0.15895024500000002,0.21196034299999997,0.08449741830000002,0.14353636600000003,1.40259959,,115.9090909090909,0,L03_NIRS-2019-08-13_006_trial01.txt,175.0
61,95.296,3.11411972,0.52160078,-0.512913152,-1.38731427,-1.63141634,-4.89693212,0.9203676669999998,0.145370299,0.209240374,0.09304727160000001,0.13818951,1.39758354,,115.9090909090909,0,L03_NIRS-2019-08-13_006_trial01.txt,175.0
62,96.57600000000001,3.07945846,0.47765095800000007,-0.544845877,-1.41132769,-1.6271329099999998,-4.89309768,0.8955429909999999,0.11976634,0.185326861,0.09214766869999999,0.12934543199999998,1.38801993,,115.9090909090909,0,L03_NIRS-2019-08-13_006_trial01.txt,175.0
63,97.856,2.97923565,0.37122354799999996,-0.6118436389999999,-1.44830959,-1.68718416,-4.94105641,0.8675990549999998,0.0968427967,0.150741576,0.0766953873,0.12126427400000002,1.37258082,,115.9090909090909,0,L03_NIRS-2019-08-13_006_trial01.txt,175.0
64,99.136,2.8963031999999997,0.302083146,-0.647899286,-1.45703512,-1.74552281,-4.999407,0.843972487,0.07811349609999999,0.12409751399999999,0.0623433162,0.11685637199999999,1.3534896499999998,,115.9090909090909,0,L03_NIRS-2019-08-13_006_trial01.txt,175.0
65,100.416,2.8806432200000005,0.31845507900000003,-0.61785986,-1.42433605,-1.7574136200000001,-5.03564829,0.8287821620000001,0.05461175619999999,0.11862170000000001,0.055524234900000004,0.11416320599999999,1.3369255,,115.9090909090909,0,L03_NIRS-2019-08-13_006_trial01.txt,175.0
66,101.69600000000001,2.9392647600000004,0.39931161,-0.5356227229999999,-1.36274449,-1.7183270000000004,-5.01268941,0.8205181460000001,0.0228698523,0.12665152799999999,0.059816018699999994,0.11120841299999999,1.3304594299999999,,115.9090909090909,0,L03_NIRS-2019-08-13_006_trial01.txt,175.0
67,102.976,3.0251139099999995,0.493579227,-0.40443791000000007,-1.25828272,-1.6604173599999998,-4.93481069,0.8194487069999999,-0.0045685640320000005,0.14625924699999998,0.0660843909,0.108650486,1.3320746,,115.9090909090909,0,L03_NIRS-2019-08-13_006_trial01.txt,175.0
68,104.256,3.07398649,0.547269976,-0.289770404,-1.17170072,-1.6310410499999999,-4.86916351,0.82564005,-0.0133605697,0.161921705,0.0739574867,0.10506242800000001,1.33304441,,115.9090909090909,0,L03_NIRS-2019-08-13_006_trial01.txt,175.0
69,105.53600000000002,3.0573170999999997,0.532878281,-0.257052157,-1.15528658,-1.6559973499999998,-4.876335899999999,0.837112472,0.0004975893600000005,0.161171639,0.0759879708,0.10060408340000002,1.32967071,,115.9090909090909,0,L03_NIRS-2019-08-13_006_trial01.txt,175.0
70,106.81599999999999,2.9886470800000002,0.452205442,-0.33350489699999997,-1.2152478600000003,-1.7253083,-4.96329132,0.848947772,0.029398704000000005,0.13783279799999998,0.0650993154,0.09798677750000001,1.32496996,,115.9090909090909,0,L03_NIRS-2019-08-13_006_trial01.txt,175.0
71,108.09599999999998,2.9023323700000003,0.33637792699999997,-0.484268842,-1.33644799,-1.8192350700000002,-5.0892993099999995,0.8529970130000001,0.0547935418,0.10029916629999999,0.04377757490000001,0.09629077439999999,1.32211112,,115.9090909090909,0,L03_NIRS-2019-08-13_006_trial01.txt,175.0
72,109.376,2.8167984899999996,0.209405632,-0.652518051,-1.4904690600000001,-1.94174964,-5.21891894,0.8507815650000001,0.0658581783,0.0665476646,0.01346279800226,0.0953629194,1.3218851299999999,,115.9090909090909,0,L03_NIRS-2019-08-13_006_trial01.txt,175.0
73,110.65600000000002,2.73771612,0.09522829140000001,-0.795201038,-1.63980696,-2.06448488,-5.30821773,0.848497852,0.0612062577,0.0419770759,-0.015080976280000002,0.10039935020000001,1.3279069199999998,,115.9090909090909,0,L03_NIRS-2019-08-13_006_trial01.txt,175.0
74,111.93599999999999,2.6965131700000002,0.052270845600000004,-0.833180254,-1.70257827,-2.1258197,-5.32952856,0.8533935570000001,0.0567678268,0.04364984360000001,-0.024863676599999995,0.11493017700000001,1.34074191,,115.9090909090909,0,L03_NIRS-2019-08-13_006_trial01.txt,175.0
75,113.21599999999998,2.7034136600000003,0.0990532305,-0.7467308970000001,-1.6529543399999997,-2.09372487,-5.29248778,0.8645924989999999,0.0667674285,0.0734872017,-0.005383668694999999,0.135070837,1.3583479600000001,,115.9090909090909,0,L03_NIRS-2019-08-13_006_trial01.txt,175.0
76,114.49600000000001,2.73126759,0.189996623,-0.595169697,-1.5415391899999997,-2.01166906,-5.240397369999999,0.8745956899999999,0.0830600434,0.1180070137,0.035904734800000004,0.150893496,1.3769527599999998,,115.9090909090909,0,L03_NIRS-2019-08-13_006_trial01.txt,175.0
77,115.77600000000002,2.7526642400000005,0.251251078,-0.462084972,-1.43254836,-1.94183949,-5.19528368,0.8843538839999999,0.09388066010000001,0.154508347,0.0779661805,0.154816003,1.39220492,,115.9090909090909,0,L03_NIRS-2019-08-13_006_trial01.txt,175.0
78,117.056,2.75292343,0.247801332,-0.4099387320000001,-1.37521774,-1.91871324,-5.16877335,0.8949600459999999,0.09026195109999999,0.16448420999999996,0.1024883199,0.145920881,1.4008214399999999,,115.9090909090909,0,L03_NIRS-2019-08-13_006_trial01.txt,175.0
79,118.33600000000001,2.71916677,0.18928805399999998,-0.473444023,-1.41294398,-1.95687261,-5.18752958,0.9119700270000001,0.0738204955,0.144646074,0.10253598719999998,0.131638537,1.4040061499999998,,115.9090909090909,0,L03_NIRS-2019-08-13_006_trial01.txt,175.0
80,119.61600000000001,2.6146991500000007,0.1022182731,-0.645765114,-1.55771422,-2.0428072100000003,-5.27703569,0.9285536420000001,0.048747582600000006,0.1025491962,0.0764449874,0.120282437,1.4014285899999999,,115.9090909090909,0,L03_NIRS-2019-08-13_006_trial01.txt,175.0
81,120.89599999999999,2.4800609600000003,0.0420008952,-0.854392627,-1.74201863,-2.1294381000000002,-5.385726289999999,0.944779924,0.030591056699999997,0.0562691725,0.0451647995,0.123154528,1.4033691699999997,,115.9090909090909,0,L03_NIRS-2019-08-13_006_trial01.txt,175.0
82,122.17599999999997,2.3744281000000003,0.021558047599999998,-1.030393073,-1.8885847100000004,-2.18832135,-5.4570845299999995,0.9572425649999999,0.026390717200000004,0.019935745940000003,0.022304546800000002,0.139539555,1.4130881399999997,,115.9090909090909,0,L03_NIRS-2019-08-13_006_trial01.txt,175.0
83,123.45599999999999,2.34582151,0.018003986399999998,-1.1334017500000002,-1.96550565,-2.2236231700000006,-5.47275681,0.9654025129999999,0.035307275799999996,0.00471219066,0.0121402512,0.16178352700000004,1.42769519,,115.9090909090909,0,L03_NIRS-2019-08-13_006_trial01.txt,175.0
84,124.73599999999999,2.39140218,0.005666136193999999,-1.1541384300000002,-1.97152526,-2.2405394700000003,-5.436883679999999,0.971421827,0.0544224463,0.00853051228,0.015572810499999997,0.18232312399999998,1.4391793199999998,,115.9090909090909,0,L03_NIRS-2019-08-13_006_trial01.txt,175.0
85,126.016,2.49414154,0.007181873755000001,-1.08703666,-1.9132265700000002,-2.2199904900000003,-5.35873537,0.9779831640000001,0.0804576228,0.026077033499999996,0.0302701362,0.19665965300000002,1.44439422,,115.9090909090909,0,L03_NIRS-2019-08-13_006_trial01.txt,175.0
86,127.296,2.6207899599999998,0.0530877029,-0.973728256,-1.8361555099999998,-2.17523551,-5.276670809999999,0.98027145,0.10256816710000001,0.04832485500000001,0.0523824016,0.20000917100000004,1.4462470399999998,,115.9090909090909,0,L03_NIRS-2019-08-13_006_trial01.txt,175.0
87,128.57600000000002,2.6780629,0.11230609650000001,-0.8828594900000001,-1.7871510900000005,-2.14335221,-5.23693488,0.9543431120000001,0.10269110020000001,0.0626114486,0.0627220853,0.18946882400000004,1.43846755,,115.9090909090909,0,L03_NIRS-2019-08-13_006_trial01.txt,175.0
88,129.856,2.67211832,0.161821073,-0.834107326,-1.7728028700000003,-2.1271283199999997,-5.21925227,0.9086801099999999,0.08506250280000001,0.06335338500000001,0.06573550289999999,0.173121357,1.42256625,,115.9090909090909,0,L03_NIRS-2019-08-13_006_trial01.txt,175.0
89,131.136,2.69313045,0.21070887200000002,-0.8215742350000002,-1.76656558,-2.1035751,-5.179923670000001,0.8704791360000002,0.060797992,0.055218629799999995,0.06071652129999999,0.1598178,1.4062607900000001,,115.9090909090909,0,L03_NIRS-2019-08-13_006_trial01.txt,175.0
90,132.416,2.80168181,0.27878934099999997,-0.7973950629999998,-1.73882066,-2.04129717,-5.11192944,0.85259175,0.034648329900000004,0.050050384,0.0577159399,0.15250407900000001,1.38911064,,115.9090909090909,0,L03_NIRS-2019-08-13_006_trial01.txt,175.0
91,133.696,2.9616359500000002,0.362245812,-0.7418411359999999,-1.6922172400000002,-1.9529320399999999,-5.04483017,0.8554429100000001,0.0183780267,0.0567920764,0.0602145514,0.15113766499999998,1.3715130600000003,,115.9090909090909,0,L03_NIRS-2019-08-13_006_trial01.txt,175.0
92,134.97599999999997,3.10654853,0.4636975230000001,-0.6497767249999999,-1.6274350599999994,-1.8662358300000002,-4.995801850000001,0.867076068,0.0191514892,0.0763117386,0.0727805236,0.152954744,1.3560495000000001,,115.9090909090909,0,L03_NIRS-2019-08-13_006_trial01.txt,175.0
93,136.256,3.2029591600000002,0.5818787889999999,-0.5384949029999999,-1.5496768600000002,-1.8098112499999999,-4.9611392,0.8655679059999999,0.025883437999999998,0.10010696549999998,0.08799962019999999,0.15268448499999998,1.34767596,,115.9090909090909,0,L03_NIRS-2019-08-13_006_trial01.txt,175.0
94,137.536,3.2201457099999997,0.6671725070000001,-0.450042642,-1.47915807,-1.80710805,-4.9422075,0.8384977140000001,0.017234924329999998,0.11274619999999999,0.09044476809999999,0.144526766,1.34214891,,115.9090909090909,0,L03_NIRS-2019-08-13_006_trial01.txt,175.0
95,138.816,3.18466973,0.687292898,-0.40100917999999997,-1.44709548,-1.8268075199999998,-4.9355606100000005,0.797080747,-0.010970961574,0.1057725889,0.08047621540000001,0.12776995800000002,1.33081658,,115.9090909090909,0,L03_NIRS-2019-08-13_006_trial01.txt,175.0
96,140.096,3.19290552,0.686351682,-0.37091801599999996,-1.42617813,-1.8135294600000003,-4.906648290000001,0.772470102,-0.0417984186,0.0913200363,0.0596908462,0.11185065600000002,1.3237388199999998,,115.9090909090909,0,L03_NIRS-2019-08-13_006_trial01.txt,175.0
97,141.376,3.26174285,0.7047830999999999,-0.336238635,-1.39434556,-1.7563685999999996,-4.856602409999999,0.7724033859999999,-0.06421139690000001,0.080480337,0.0436706688,0.10054437330000002,1.3194023700000002,,115.9090909090909,0,L03_NIRS-2019-08-13_006_trial01.txt,175.0
98,142.656,3.3398338799999996,0.746834247,-0.298536221,-1.3550984600000002,-1.68869133,-4.805623150000001,0.790034602,-0.06169032739999999,0.0780831149,0.036318622599999996,0.09573357019999999,1.31673681,,115.9090909090909,0,L03_NIRS-2019-08-13_006_trial01.txt,175.0
99,143.936,3.3704442,0.7941379310000001,-0.260253582,-1.30482859,-1.64231125,-4.76654684,0.8097004590000001,-0.034010185,0.08192858490000002,0.03847807290000001,0.09553978059999998,1.31595476,,115.9090909090909,0,L03_NIRS-2019-08-13_006_trial01.txt,175.0
100,145.21599999999998,3.34130387,0.83256526,-0.19849651799999998,-1.23312055,-1.6165725000000002,-4.73476044,0.8142582339999999,-0.005001906176000001,0.0872636977,0.0447349195,0.09454091760000001,1.3119346699999999,,115.9090909090909,0,L03_NIRS-2019-08-13_006_trial01.txt,175.0
101,146.496,3.28043787,0.849862746,-0.11650724409999999,-1.1632221,-1.6073174799999996,-4.7164206900000005,0.799032465,-0.0061423662700000005,0.0884573627,0.041423365499999996,0.08333639219999998,1.29595837,,115.9090909090909,0,L03_NIRS-2019-08-13_006_trial01.txt,175.0
102,147.776,3.2475907499999996,0.8483021409999999,-0.03123801175,-1.11575781,-1.58176125,-4.689210109999999,0.777309891,-0.038839181900000005,0.0842675324,0.02184577954,0.0584630936,1.2677228800000002,,115.9090909090909,0,L03_NIRS-2019-08-13_006_trial01.txt,175.0
103,149.05599999999998,3.2820664200000005,0.8638108360000001,0.0387780519,-1.06714834,-1.50463693,-4.621490240000001,0.7610435110000001,-0.0806610556,0.07271508739999999,-0.01115818536,0.0266296203,1.2358662700000003,,115.9090909090909,0,L03_NIRS-2019-08-13_006_trial01.txt,175.0
104,150.33599999999998,3.33989887,0.8939600650000001,0.039478047800000006,-1.03916576,-1.42733941,-4.54139815,0.7507694490000001,-0.113410499,0.04706830199999999,-0.04359896609999999,-0.0030416056910000005,1.2072221500000002,,115.9090909090909,0,L03_NIRS-2019-08-13_006_trial01.txt,175.0
105,151.616,3.35855125,0.907413558,-0.027784744437999997,-1.0354540600000002,-1.39171055,-4.4796967,0.742215917,-0.127722595,0.008171989670000001,-0.06863110419999999,-0.0200214135,1.18405403,,115.9090909090909,0,L03_NIRS-2019-08-13_006_trial01.txt,175.0
106,152.89600000000002,3.3170034999999998,0.87573796,-0.10912530810000001,-1.02985865,-1.3941800400000002,-4.440047,0.73855895,-0.12340421500000001,-0.0322918712,-0.0809771546,-0.0212252286,1.16787539,,115.9090909090909,0,L03_NIRS-2019-08-13_006_trial01.txt,175.0
107,154.176,3.23453795,0.7999132470000001,-0.143031949,-1.001557731,-1.41156105,-4.41715897,0.7395420399999999,-0.107891828,-0.0561414541,-0.08119777809999999,-0.01103619348,1.15621784,,115.9090909090909,0,L03_NIRS-2019-08-13_006_trial01.txt,175.0
108,155.456,3.14352649,0.7019444670000001,-0.11357749260000001,-0.944955735,-1.41921711,-4.40013762,0.7368723149999999,-0.0994941728,-0.05880681920000001,-0.08035396430000001,0.000529951869,1.14462899,,115.9090909090909,0,L03_NIRS-2019-08-13_006_trial01.txt,175.0
109,156.73600000000002,3.1134229800000006,0.634206391,-0.03267696337999999,-0.8669706829999999,-1.40073651,-4.35398487,0.7402581879999999,-0.0846673254,-0.038497738999999996,-0.07462491210000002,0.0077917334199999995,1.1337389200000003,,115.9090909090909,0,L03_NIRS-2019-08-13_006_trial01.txt,175.0
110,158.01600000000002,3.1634749400000004,0.65289347,0.04162474509999999,-0.7930136210000001,-1.3582704300000001,-4.28216602,0.745328033,-0.06536040690000001,-0.021868689000000004,-0.06902116729999999,0.008001618649999999,1.1219877999999999,,115.9090909090909,0,L03_NIRS-2019-08-13_006_trial01.txt,175.0
111,159.296,3.2712128299999996,0.7582328810000002,0.07288369060000001,-0.7498678099999999,-1.3035852,-4.2056596399999995,0.744354787,-0.0538210433,-0.0268532069,-0.066700957,0.0037400681500000003,1.11222096,,115.9090909090909,0,L03_NIRS-2019-08-13_006_trial01.txt,175.0
112,160.57599999999996,3.3737353999999997,0.882135261,0.06786924050000001,-0.7356231040000001,-1.24241001,-4.1460469,0.736825703,-0.05783343480000001,-0.05283687130000001,-0.0760370689,-0.0017935469932000001,1.10569519,,115.9090909090909,0,L03_NIRS-2019-08-13_006_trial01.txt,175.0
113,161.856,3.4104929,0.941683692,0.019784227660000004,-0.761589863,-1.19641037,-4.128624699999999,0.726172733,-0.07933953280000001,-0.0942412947,-0.0979816225,-0.0066965672399999995,1.10390051,,115.9090909090909,0,L03_NIRS-2019-08-13_006_trial01.txt,175.0
114,163.136,3.3611971599999997,0.89614227,-0.08354225480000001,-0.8360408890000001,-1.19679287,-4.180579669999999,0.7092642149999999,-0.1158958489,-0.137986387,-0.129703654,-0.01270276869,1.10537018,,115.9090909090909,0,L03_NIRS-2019-08-13_006_trial01.txt,175.0
115,164.416,3.24330345,0.76842222,-0.213405128,-0.9299914579999999,-1.24960848,-4.287702210000001,0.676965049,-0.16630606799999997,-0.174961278,-0.162884944,-0.0215332606,1.1105335399999998,,115.9090909090909,0,L03_NIRS-2019-08-13_006_trial01.txt,175.0
116,165.696,3.1115222300000007,0.626384308,-0.33001963600000006,-1.021545592,-1.3420772099999998,-4.41792463,0.637356297,-0.20920391299999994,-0.19951897700000001,-0.177951663,-0.0322188733,1.11588333,,115.9090909090909,0,L03_NIRS-2019-08-13_006_trial01.txt,175.0
117,166.97599999999997,3.0276961,0.557234103,-0.381633988,-1.05852508,-1.41698989,-4.51547554,0.597124412,-0.23851239400000002,-0.209655373,-0.17446338500000003,-0.0392532835,1.12348762,,115.9090909090909,0,L03_NIRS-2019-08-13_006_trial01.txt,175.0
118,168.256,3.04353842,0.592407228,-0.31037192300000005,-0.9958736260000001,-1.42078511,-4.5297198299999994,0.57037117,-0.25839241500000004,-0.197260049,-0.15552472599999997,-0.04234678899999999,1.13709956,,115.9090909090909,0,L03_NIRS-2019-08-13_006_trial01.txt,175.0
119,169.536,3.12188322,0.66650634,-0.13285310769999997,-0.832441681,-1.34106948,-4.44549819,0.5645459209999999,-0.26528606000000005,-0.165535356,-0.133261891,-0.0398084146,1.1561557,,115.9090909090909,0,L03_NIRS-2019-08-13_006_trial01.txt,175.0
120,170.816,3.1589302999999997,0.6709396830000001,0.039250380009999995,-0.656785581,-1.26065039,-4.33977611,0.579610879,-0.255693629,-0.133510462,-0.118244987,-0.037111877,1.16992725,,115.9090909090909,0,L03_NIRS-2019-08-13_006_trial01.txt,175.0
121,172.096,3.12944024,0.5981164330000001,0.127728176,-0.5413157529999999,-1.23487125,-4.28146086,0.611659611,-0.23388642699999998,-0.11308172200000002,-0.108468551,-0.03877092790000001,1.167953,,115.9090909090909,0,L03_NIRS-2019-08-13_006_trial01.txt,175.0
122,173.376,3.08756676,0.5397212029999999,0.16465017099999998,-0.47171704000000003,-1.2329594700000002,-4.2573976,0.6446510950000001,-0.203291108,-0.106037511,-0.10346783000000001,-0.041847461200000005,1.1545849799999999,,115.9090909090909,0,L03_NIRS-2019-08-13_006_trial01.txt,175.0
123,174.65599999999998,3.10990624,0.572055725,0.217758114,-0.41885844299999997,-1.2115323500000001,-4.2158704700000005,0.676958863,-0.16112428800000003,-0.10166455860000001,-0.0947424258,-0.04092595580000001,1.13870764,,115.9090909090909,0,L03_NIRS-2019-08-13_006_trial01.txt,175.0
124,175.936,3.21381468,0.692259291,0.331908034,-0.335593686,-1.1424268899999999,-4.128564889999999,0.707219939,-0.11164407220000001,-0.08401911279999999,-0.0812608556,-0.03366413110000001,1.1265673799999998,,115.9090909090909,0,L03_NIRS-2019-08-13_006_trial01.txt,175.0
125,177.21599999999998,3.3508013300000004,0.833144127,0.46903910299999996,-0.237832825,-1.05511153,-4.02524975,0.728083465,-0.0750332535,-0.06051002410000002,-0.063206727,-0.023828512000000003,1.1202170900000001,,115.9090909090909,0,L03_NIRS-2019-08-13_006_trial01.txt,175.0
126,178.496,3.41731902,0.884904493,0.561350252,-0.153139992,-1.000566281,-3.9585096400000004,0.7310557129999999,-0.06477014379999999,-0.046817470400000005,-0.0575603632,-0.0173752704,1.1132642400000001,,115.9090909090909,0,L03_NIRS-2019-08-13_006_trial01.txt,175.0
127,179.776,3.3561345200000003,0.80224206,0.5643591370000001,-0.08371832139999999,-0.9747394440000001,-3.92324982,0.722117178,-0.0692081421,-0.05014598659999999,-0.0665634145,-0.018341904899999994,1.1015605000000002,,115.9090909090909,0,L03_NIRS-2019-08-13_006_trial01.txt,175.0
128,181.05599999999998,3.26520123,0.700956693,0.533782701,-0.007528642490000003,-0.915456713,-3.85999762,0.7207303260000001,-0.0643848811,-0.059335512700000016,-0.06967127199999999,-0.025559358100000002,1.08581234,,115.9090909090909,0,L03_NIRS-2019-08-13_006_trial01.txt,175.0
129,182.33599999999998,3.25280537,0.703090104,0.5254862660000001,0.10067587959999999,-0.78178981,-3.7302993199999994,0.7309277899999999,-0.041589360199999995,-0.07040779319999999,-0.0654952774,-0.0322082262,1.07464034,,115.9090909090909,0,L03_NIRS-2019-08-13_006_trial01.txt,175.0
130,183.61599999999999,3.348583610000001,0.8097616359999998,0.5506833469999999,0.21518404799999996,-0.61054795,-3.5447235999999998,0.7514057590000001,-0.002106377544999999,-0.0793097808,-0.0568555632,-0.0343497034,1.07061785,,115.9090909090909,0,L03_NIRS-2019-08-13_006_trial01.txt,175.0
131,184.896,3.4858480300000005,0.9370300570000001,0.572128271,0.29470698800000006,-0.47142878699999996,-3.3642482300000003,0.7693219340000002,0.029717039700000003,-0.0872438314,-0.0467937865,-0.0370212991,1.0644225600000001,,115.9090909090909,0,L03_NIRS-2019-08-13_006_trial01.txt,175.0
132,186.176,3.5610785099999993,0.99876407,0.540898814,0.31151652900000004,-0.41870314099999995,-3.25434701,0.7621785400000001,0.021363103190000003,-0.1049632345,-0.044089263399999995,-0.0477354282,1.048823,,115.9090909090909,0,L03_NIRS-2019-08-13_006_trial01.txt,175.0
133,187.456,3.4966223399999996,0.941073649,0.4523250639999999,0.27285760400000003,-0.4619292410000001,-3.2316692500000004,0.7211492749999999,-0.03664113639,-0.134098879,-0.0632450511,-0.0704581527,1.0209615299999997,,115.9090909090909,0,L03_NIRS-2019-08-13_006_trial01.txt,175.0
134,188.73600000000002,3.3066339500000006,0.7867090529999999,0.329746063,0.21496660099999998,-0.5393954300000001,-3.23189501,0.6614600009999999,-0.11723218099999999,-0.17052274300000003,-0.09729970400000001,-0.09827161129999998,0.986280064,,115.9090909090909,0,L03_NIRS-2019-08-13_006_trial01.txt,175.0
135,190.01600000000002,3.10514129,0.6395514889999999,0.25615202800000003,0.181577384,-0.5847311789999999,-3.1790689100000002,0.605526778,-0.186386683,-0.19144633700000002,-0.126255727,-0.12209829700000001,0.9522880279999999,,115.9090909090909,0,L03_NIRS-2019-08-13_006_trial01.txt,175.0
136,191.232,2.940796766666667,0.552176961111111,0.22452846666666668,0.16395574444444447,-0.6007550755555555,-3.0911834333333337,0.56493506,-0.22305314333333331,-0.19508891555555555,-0.14676991666666667,-0.1369487766666667,0.9238402511111112,,115.9090909090909,0,L03_NIRS-2019-08-13_006_trial01.txt,175.0
