,time,S3_D4_HbO,S3_D3_HbO,S2_D3_HbO,S2_D2_HbO,S1_D2_HbO,S1_D1_HbO,S3_D4_HbR,S3_D3_HbR,S2_D3_HbR,S2_D2_HbR,S1_D2_HbR,S1_D1_HbR,Var14,score,labelnum,filename,total_time
0,240.32000000000002,0.7172278430000001,1.23990874,1.0386517300000002,1.17361798,0.314061456,1.33737741,0.300759986,0.507749533,0.41458226499999995,0.483085862,0.47831558799999996,0.5209011939999999,,202.8181818181818,1,L03_NIRS-2019-08-17_007_trial03.txt,79.0
1,241.6,0.716264066,1.33854631,1.11564668,1.21135151,0.308028089,1.3460458700000002,0.308711024,0.5310518689999999,0.446780999,0.497817265,0.483009732,0.521167163,,202.8181818181818,1,L03_NIRS-2019-08-17_007_trial03.txt,79.0
2,242.88000000000002,0.92515236,1.6166592100000003,1.40210187,1.40164008,0.45363497199999997,1.54203364,0.34233678600000006,0.572372702,0.506842418,0.5301279489999999,0.4899863160000001,0.5284507890000001,,202.8181818181818,1,L03_NIRS-2019-08-17_007_trial03.txt,79.0
3,244.16,1.2783229600000001,1.95859373,1.81135872,1.69145933,0.723754112,1.8732579299999998,0.385392935,0.6111075429999999,0.5704692789999999,0.564088349,0.492057961,0.528289534,,202.8181818181818,1,L03_NIRS-2019-08-17_007_trial03.txt,79.0
4,245.44,1.6083240500000002,2.2290630599999997,2.19938835,1.99024372,1.0049291459999998,2.1997011300000002,0.41057234000000004,0.6335550489999999,0.616839988,0.586330183,0.4830967340000001,0.50915444,,202.8181818181818,1,L03_NIRS-2019-08-17_007_trial03.txt,79.0
5,246.71999999999997,1.73807368,2.31870553,2.40116707,2.18117962,1.1657601000000002,2.3923656899999997,0.39930580399999993,0.6408365939999999,0.625647285,0.584498333,0.46272363000000005,0.47832120600000005,,202.8181818181818,1,L03_NIRS-2019-08-17_007_trial03.txt,79.0
6,248.0,1.6118971000000002,2.11025835,2.1976868,2.11543822,1.1080985599999997,2.33241092,0.353118535,0.5931273380000001,0.53025957,0.521776785,0.4160105479999999,0.41195925899999997,,202.8181818181818,1,L03_NIRS-2019-08-17_007_trial03.txt,79.0
7,249.28000000000003,1.3052749900000002,1.71315435,1.6944318099999998,1.84013493,0.8851924859999999,2.07253554,0.279133761,0.5008976890000001,0.364064303,0.420582938,0.356897211,0.321133924,,202.8181818181818,1,L03_NIRS-2019-08-17_007_trial03.txt,79.0
8,250.56,0.9589178010000001,1.29117067,1.10990517,1.4908543300000001,0.6054636280000001,1.74412826,0.20645081699999998,0.402045575,0.195281987,0.32530021500000006,0.30763509899999997,0.23215354100000002,,202.8181818181818,1,L03_NIRS-2019-08-17_007_trial03.txt,79.0
9,251.84000000000006,0.739574384,1.01108632,0.706874277,1.2312157799999999,0.40761021900000005,1.5043451400000003,0.16719771500000002,0.338947425,0.08668573759999999,0.257993708,0.277856902,0.165041405,,202.8181818181818,1,L03_NIRS-2019-08-17_007_trial03.txt,79.0
10,253.12000000000003,0.694728134,0.931326316,0.583743169,1.1102313300000002,0.330070728,1.38927568,0.165632155,0.3200673770000001,0.060415598,0.22820281899999997,0.263526643,0.12722666100000002,,202.8181818181818,1,L03_NIRS-2019-08-17_007_trial03.txt,79.0
11,254.40000000000003,0.7021632,0.9519730319999999,0.625642866,1.0635709600000003,0.29742915200000003,1.31152954,0.173638862,0.326499833,0.0916487211,0.225738122,0.25906177399999997,0.10789714300000001,,202.8181818181818,1,L03_NIRS-2019-08-17_007_trial03.txt,79.0
12,255.67999999999998,0.6803438799999999,0.9987983499999998,0.696867645,1.08683979,0.3030737,1.28491513,0.176423516,0.34988413099999993,0.13859620499999997,0.24305948899999996,0.265499634,0.111756119,,202.8181818181818,1,L03_NIRS-2019-08-17_007_trial03.txt,79.0
13,256.96,0.696194443,1.0366642799999999,0.722201975,1.13307961,0.35056692500000003,1.3140146299999997,0.182716442,0.35842084300000004,0.147309067,0.241523465,0.263313147,0.115871959,,202.8181818181818,1,L03_NIRS-2019-08-17_007_trial03.txt,79.0
14,258.24,0.7599636959999999,1.07778412,0.746245293,1.1660886599999998,0.41210384099999997,1.3416143699999998,0.18478928499999997,0.342613968,0.12185573999999999,0.20890134199999996,0.24752531100000003,0.1055276852,,202.8181818181818,1,L03_NIRS-2019-08-17_007_trial03.txt,79.0
15,259.52,0.8465317950000001,1.12211294,0.762957894,1.1527116,0.436245667,1.3138852499999998,0.180431185,0.31433859899999994,0.0796662288,0.164404002,0.22023682499999997,0.085694161,,202.8181818181818,1,L03_NIRS-2019-08-17_007_trial03.txt,79.0
16,260.8,0.9034308400000001,1.1269173099999998,0.7371921260000001,1.0732597099999999,0.388674293,1.22468417,0.16866367200000001,0.280311003,0.033876462499999996,0.1145563628,0.18836551699999998,0.0625242724,,202.8181818181818,1,L03_NIRS-2019-08-17_007_trial03.txt,79.0
17,262.08000000000004,0.8516987610000001,1.0230679429999998,0.607157976,0.9579809669999999,0.28083893200000004,1.10604937,0.148087179,0.24391666500000003,-0.01261323345,0.07606197799999999,0.16673973599999997,0.04376049659999999,,202.8181818181818,1,L03_NIRS-2019-08-17_007_trial03.txt,79.0
18,263.36,0.6637071129999998,0.795478908,0.35495145199999995,0.8078067499999999,0.1206772723,0.9481342850000001,0.11583737919999999,0.205316946,-0.0567566212,0.051748401,0.158647204,0.024583873499999995,,202.8181818181818,1,L03_NIRS-2019-08-17_007_trial03.txt,79.0
19,264.64,0.44875731100000005,0.5751366709999999,0.09203648449999999,0.6843547889999999,-0.01079350487,0.8132238199999999,0.08454751359999998,0.176287217,-0.09188172730000001,0.039508516900000006,0.16273726,0.00745596075,,202.8181818181818,1,L03_NIRS-2019-08-17_007_trial03.txt,79.0
20,265.92,0.41565620899999994,0.56403611,0.0510215741,0.640415662,-0.042839384499999994,0.7820263739999999,0.0786749975,0.171546183,-0.09758240060000001,0.0304616109,0.172534802,-0.004176227305999999,,202.8181818181818,1,L03_NIRS-2019-08-17_007_trial03.txt,79.0
21,267.2,0.588063471,0.772960092,0.286466685,0.6637438120000001,0.012040988712,0.815939354,0.093812618,0.178089736,-0.07389319730000002,0.0213501157,0.179587557,-0.0181781535,,202.8181818181818,1,L03_NIRS-2019-08-17_007_trial03.txt,79.0
22,268.48,0.8403271130000001,1.0675536,0.647784784,0.7262288129999999,0.0953999841,0.8676201549999998,0.10574426699999999,0.18494313899999998,-0.0359054776,0.019044507999999998,0.179835115,-0.028986696099999997,,202.8181818181818,1,L03_NIRS-2019-08-17_007_trial03.txt,79.0
23,269.76000000000005,1.00403795,1.24532704,0.90820703,0.7682959279999999,0.138570182,0.8948940279999998,0.0945768489,0.17319295300000004,-0.0148498252,0.0161490903,0.17342183500000002,-0.0363914222,,202.8181818181818,1,L03_NIRS-2019-08-17_007_trial03.txt,79.0
24,271.03999999999996,1.0168478090000002,1.2422849799999998,0.9816945840000001,0.8151464159999999,0.17211541200000002,0.916856076,0.0597897646,0.15157218,-0.0188148751,0.0142677473,0.17244899399999997,-0.0417591375,,202.8181818181818,1,L03_NIRS-2019-08-17_007_trial03.txt,79.0
25,272.32000000000005,0.9479081810000001,1.14205883,0.945376241,0.8752712839999999,0.21828794199999998,0.9444694220000001,0.023968631900000002,0.14311254899999998,-0.029187142300000003,0.015600787799999998,0.176752622,-0.0456023249,,202.8181818181818,1,L03_NIRS-2019-08-17_007_trial03.txt,79.0
26,273.59999999999997,0.873686195,1.027058337,0.8453694540000001,0.9042582110000001,0.239977002,0.925157845,0.0029184840967,0.14576998,-0.0472433731,0.013069313130000001,0.175668212,-0.0583830069,,202.8181818181818,1,L03_NIRS-2019-08-17_007_trial03.txt,79.0
27,274.88,0.8272431170000001,0.934375816,0.7196047729999999,0.8599667670000001,0.197486925,0.840139915,-0.0001822600666999999,0.148175804,-0.075643927,-0.0005905965359999999,0.16681521,-0.08128729130000001,,202.8181818181818,1,L03_NIRS-2019-08-17_007_trial03.txt,79.0
28,276.15999999999997,0.7810381470000001,0.8587861050000001,0.5870577709999999,0.7878191200000002,0.1221986832,0.7234613189999999,0.001430523753,0.13990818400000002,-0.1059733943,-0.01054649357,0.156579339,-0.1069741082,,202.8181818181818,1,L03_NIRS-2019-08-17_007_trial03.txt,79.0
29,277.44,0.6847850939999999,0.75443985,0.4425561719999999,0.7464440910000001,0.0689339691,0.6364410759999999,-0.00685427495,0.11669368500000002,-0.12947995299999998,-0.008674710759999999,0.15535793800000003,-0.121086791,,202.8181818181818,1,L03_NIRS-2019-08-17_007_trial03.txt,79.0
30,278.72,0.5491872609999999,0.6213246659999998,0.29879882,0.74913292,0.06217977160000001,0.6057374550000001,-0.021412836900000003,0.08614528739999999,-0.14532413,-0.00690417616,0.161947799,-0.12167955099999998,,202.8181818181818,1,L03_NIRS-2019-08-17_007_trial03.txt,79.0
31,280.0,0.4482854209999999,0.551956891,0.23035920599999998,0.7646040980000001,0.09347267590000001,0.6059169759999999,-0.0318161509,0.0666284098,-0.143314339,-0.00632672231,0.173305007,-0.114858975,,202.8181818181818,1,L03_NIRS-2019-08-17_007_trial03.txt,79.0
32,281.28000000000003,0.49754643400000004,0.669488291,0.36190304500000003,0.81745248,0.177204214,0.66349896,-0.0233063218,0.0728888798,-0.1133213928,-0.00605888339,0.18280433299999996,-0.10392018389999999,,202.8181818181818,1,L03_NIRS-2019-08-17_007_trial03.txt,79.0
33,282.55999999999995,0.693710549,0.9377305739999999,0.6699799220000001,0.898563953,0.288137602,0.761713966,0.0022958471739999995,0.0980231192,-0.0632764894,-0.00389955712,0.185906276,-0.09480066420000001,,202.8181818181818,1,L03_NIRS-2019-08-17_007_trial03.txt,79.0
34,283.84000000000003,0.9272417860000001,1.21368647,0.984740025,0.9722783949999998,0.371912653,0.8506386730000001,0.026723110799999998,0.128947812,-0.01779510625,-0.0021709187600000004,0.179291592,-0.0916876362,,202.8181818181818,1,L03_NIRS-2019-08-17_007_trial03.txt,79.0
35,285.12,1.0988921600000001,1.37143516,1.1568478,1.016248685,0.41685105499999997,0.9064096850000001,0.0304477801,0.143702116,-0.0012944739289999997,-0.004325198590000001,0.166837356,-0.09948693,,202.8181818181818,1,L03_NIRS-2019-08-17_007_trial03.txt,79.0
36,286.40000000000003,1.17755482,1.3858708000000002,1.18664709,1.05922224,0.47886880200000004,0.9733552590000001,0.0063471731400000005,0.139443154,-0.01136976153,-0.00660832047,0.16371553900000002,-0.11157660600000001,,202.8181818181818,1,L03_NIRS-2019-08-17_007_trial03.txt,79.0
37,287.68,1.1912583099999998,1.2996771099999997,1.11436347,1.09687655,0.541876624,1.04798129,-0.033562246100000005,0.12882476299999998,-0.0375307275,-0.012055977649999999,0.16792700700000002,-0.125236894,,202.8181818181818,1,L03_NIRS-2019-08-17_007_trial03.txt,79.0
38,288.96,1.14041466,1.15496469,0.9553773409999999,1.043399861,0.524404517,1.04262622,-0.0771136151,0.11796892,-0.0700870274,-0.0188502706,0.17523474700000002,-0.142771576,,202.8181818181818,1,L03_NIRS-2019-08-17_007_trial03.txt,79.0
39,290.24,1.042845922,0.999352006,0.7314655749999999,0.9259199340000001,0.426211173,0.948190385,-0.11599833620000002,0.0982593365,-0.11280379330000001,-0.027683928300000004,0.18083712500000002,-0.16214243499999997,,202.8181818181818,1,L03_NIRS-2019-08-17_007_trial03.txt,79.0
40,291.52,0.8844936030000001,0.825624468,0.473654288,0.7914372600000001,0.29261112599999994,0.8027000870000001,-0.15030573200000003,0.07040075350000001,-0.149727577,-0.029530156799999995,0.19051404300000002,-0.16995760900000004,,202.8181818181818,1,L03_NIRS-2019-08-17_007_trial03.txt,79.0
41,292.8,0.708634876,0.6628403969999999,0.245478524,0.702613003,0.21241092199999997,0.702780243,-0.17273638600000002,0.0524312777,-0.16545017899999998,-0.0164519689,0.20795072399999998,-0.15622223100000002,,202.8181818181818,1,L03_NIRS-2019-08-17_007_trial03.txt,79.0
42,294.08000000000004,0.608857626,0.5806735900000001,0.157084361,0.676959882,0.22635325,0.7017366669999998,-0.177041104,0.0528643732,-0.154687993,-0.00029187927000000005,0.225462571,-0.13224718600000002,,202.8181818181818,1,L03_NIRS-2019-08-17_007_trial03.txt,79.0
43,295.36,0.656640392,0.656616817,0.29998171099999993,0.727929862,0.331842166,0.797955411,-0.160206669,0.0811162965,-0.1080679731,0.014391345700000002,0.243364705,-0.10516726859999999,,202.8181818181818,1,L03_NIRS-2019-08-17_007_trial03.txt,79.0
44,296.64,0.8295003880000001,0.845734516,0.5670076879999999,0.7893755469999999,0.43793175,0.905063591,-0.12908035999999998,0.12119354900000001,-0.052733662599999995,0.0239575571,0.253571566,-0.0866345197,,202.8181818181818,1,L03_NIRS-2019-08-17_007_trial03.txt,79.0
45,297.92,0.9948633630000001,1.003462899,0.751016165,0.7645494759999999,0.43637102299999997,0.9114706499999998,-0.10855164700000001,0.14318594099999998,-0.0245213472,0.01598632473,0.248295212,-0.08703027910000001,,202.8181818181818,1,L03_NIRS-2019-08-17_007_trial03.txt,79.0
46,299.19999999999993,1.0613255799999999,1.0442360099999999,0.744305519,0.693653793,0.35736222600000006,0.8365836160000001,-0.11243484100000001,0.12937876399999998,-0.0445810481,-0.00010803930999999986,0.23441517099999998,-0.10105938879999998,,202.8181818181818,1,L03_NIRS-2019-08-17_007_trial03.txt,79.0
47,300.48,1.010348353,0.958334762,0.611928659,0.6582102400000001,0.286564636,0.765560324,-0.13379739000000002,0.09458434490000002,-0.0876162665,-0.01010398135,0.224356979,-0.11429015500000002,,202.8181818181818,1,L03_NIRS-2019-08-17_007_trial03.txt,79.0
48,301.76000000000005,0.9463537430000001,0.8760239729999999,0.522129292,0.70054781,0.295659619,0.7808726349999999,-0.14512968399999998,0.0754848172,-0.11316867099999998,-0.003004447163,0.22045503499999994,-0.11417827399999998,,202.8181818181818,1,L03_NIRS-2019-08-17_007_trial03.txt,79.0
49,303.04,0.9590590420000001,0.8980779849999999,0.583948745,0.791279353,0.3661438759999999,0.8635868010000001,-0.13260227200000002,0.0805194018,-0.1043802465,0.010660994654,0.21421357200000002,-0.10842243599999998,,202.8181818181818,1,L03_NIRS-2019-08-17_007_trial03.txt,79.0
50,304.32000000000005,1.0448544700000002,1.019193267,0.754703692,0.8731112580000001,0.42214612,0.9350384539999999,-0.10096115070000003,0.10272719490000001,-0.0680744617,0.0297147796,0.202087883,-0.1010930141,,202.8181818181818,1,L03_NIRS-2019-08-17_007_trial03.txt,79.0
51,305.6,1.15886472,1.15565696,0.900381104,0.9416064040000001,0.449368402,0.9768829510000001,-0.06384697590000002,0.12125643,-0.036253168100000004,0.050508291999999996,0.18985163700000002,-0.0936119316,,202.8181818181818,1,L03_NIRS-2019-08-17_007_trial03.txt,79.0
52,306.88,1.20180586,1.1770695,0.9196100880000001,0.989104925,0.435598542,0.98727612,-0.04230260699999999,0.120947005,-0.026776513500000005,0.0650866785,0.18023536899999998,-0.08357245649999999,,202.8181818181818,1,L03_NIRS-2019-08-17_007_trial03.txt,79.0
53,308.15999999999997,1.15278912,1.08312604,0.8282176139999999,1.04506652,0.44012046200000005,1.003715843,-0.043836527800000004,0.107247311,-0.041898981999999994,0.08064778689999999,0.18051239399999996,-0.07132024769999999,,202.8181818181818,1,L03_NIRS-2019-08-17_007_trial03.txt,79.0
54,309.44,1.06228103,0.967662575,0.746389192,1.10539871,0.47935592000000005,1.0488484800000002,-0.057387893200000005,0.0983223999,-0.06172536390000001,0.09055583800000001,0.18427422499999999,-0.059935834599999994,,202.8181818181818,1,L03_NIRS-2019-08-17_007_trial03.txt,79.0
55,310.71999999999997,1.03915448,0.958710813,0.754021962,1.14403443,0.533662798,1.1002326999999998,-0.06549412029999999,0.105020168,-0.0737927944,0.0881944159,0.181753901,-0.0565921703,,202.8181818181818,1,L03_NIRS-2019-08-17_007_trial03.txt,79.0
56,312.0,1.07221088,1.0153528719999998,0.7769193,1.1010323999999998,0.507600771,1.07438838,-0.0664628401,0.11163040999999999,-0.08148120630000001,0.0712021928,0.168078366,-0.0642565878,,202.8181818181818,1,L03_NIRS-2019-08-17_007_trial03.txt,79.0
57,313.28000000000003,1.10460142,1.05184446,0.742132147,1.010870115,0.4232515090000001,0.996729865,-0.07081301970000001,0.106154784,-0.0935097733,0.05211768679999999,0.1518359,-0.0788095428,,202.8181818181818,1,L03_NIRS-2019-08-17_007_trial03.txt,79.0
58,314.56,1.1256757700000002,1.04494726,0.689257902,0.9833394310000001,0.39961428800000004,0.9763378460000001,-0.0782925353,0.0908856229,-0.10529449099999999,0.0370019061,0.147824793,-0.09766563819999999,,202.8181818181818,1,L03_NIRS-2019-08-17_007_trial03.txt,79.0
59,315.84000000000003,1.1373149100000002,1.015308451,0.7244719550000001,1.06191482,0.472368425,1.04367543,-0.0825458184,0.09015126670000001,-0.08315227929999999,0.0417363163,0.159505016,-0.114912406,,202.8181818181818,1,L03_NIRS-2019-08-17_007_trial03.txt,79.0
