,time,S3_D4_HbO,S3_D3_HbO,S2_D3_HbO,S2_D2_HbO,S1_D2_HbO,S1_D1_HbO,S3_D4_HbR,S3_D3_HbR,S2_D3_HbR,S2_D2_HbR,S1_D2_HbR,S1_D1_HbR,Var14,score,labelnum,filename,total_time
0,761.28,3.6972658600000003,-0.49479185699999995,-0.515020983,-0.44233522699999994,-0.44353143,-1.015390062,1.45070835,0.38476689699999994,0.403733947,0.6872468279999999,0.42583686099999996,1.40790932,,166.3939393939394,1,L03_NIRS-2019-08-13_006_trial05.txt,123.0
1,762.5600000000001,3.7408942100000004,-0.42921354800000006,-0.4246265769999999,-0.391844081,-0.412113853,-0.9563419200000001,1.39434887,0.32909920800000003,0.39493569100000003,0.682751784,0.403463778,1.3980714200000002,,166.3939393939394,1,L03_NIRS-2019-08-13_006_trial05.txt,123.0
2,763.84,3.72871865,-0.44748167399999994,-0.439433742,-0.40229359200000003,-0.4452533290000001,-0.9619702459999997,1.3530761900000001,0.296396906,0.37033323800000006,0.662802951,0.38173924299999995,1.39134949,,166.3939393939394,1,L03_NIRS-2019-08-13_006_trial05.txt,123.0
3,765.12,3.7049374699999995,-0.47484131399999996,-0.45947356,-0.386986708,-0.44953414199999997,-0.9348292810000001,1.33245608,0.29260976600000005,0.34853557199999996,0.643951974,0.3740812210000001,1.39554841,,166.3939393939394,1,L03_NIRS-2019-08-13_006_trial05.txt,123.0
4,766.3999999999999,3.73242841,-0.44722188999999996,-0.381250958,-0.32140346,-0.381167822,-0.8334310979999999,1.33089157,0.307375204,0.35295469799999996,0.63728531,0.379242409,1.40516591,,166.3939393939394,1,L03_NIRS-2019-08-13_006_trial05.txt,123.0
5,767.6800000000001,3.8263138000000003,-0.36535877699999997,-0.212661677,-0.22830795399999998,-0.272107416,-0.7018567029999999,1.34116729,0.33444091899999995,0.38523950100000004,0.636574588,0.386700444,1.4108452699999998,,166.3939393939394,1,L03_NIRS-2019-08-13_006_trial05.txt,123.0
6,768.96,3.9525466900000006,-0.26400763299999996,-0.020220951369999997,-0.1340484659,-0.18547431100000003,-0.599561976,1.34974091,0.368064393,0.426088168,0.6308653719999999,0.38601401199999996,1.4047617399999999,,166.3939393939394,1,L03_NIRS-2019-08-13_006_trial05.txt,123.0
7,770.2399999999999,4.044285009999999,-0.197408914,0.0829429735,-0.0957512529,-0.17901854099999998,-0.58584124,1.3422034,0.382705636,0.444576867,0.60625599,0.36845122399999997,1.3863285300000001,,166.3939393939394,1,L03_NIRS-2019-08-13_006_trial05.txt,123.0
8,771.5200000000001,4.0506534400000005,-0.218339572,0.04071782979,-0.1210129834,-0.22776427500000002,-0.628913649,1.3161317700000001,0.36313776900000005,0.416077355,0.5569833160000001,0.33511414300000003,1.36101154,,166.3939393939394,1,L03_NIRS-2019-08-13_006_trial05.txt,123.0
9,772.8,4.00657346,-0.28632486999999995,-0.033619732830000006,-0.137827213,-0.23431312399999998,-0.6243347189999999,1.28843654,0.332834024,0.364695998,0.5020835920000002,0.297937123,1.33514587,,166.3939393939394,1,L03_NIRS-2019-08-13_006_trial05.txt,123.0
10,774.0799999999999,3.9824769600000005,-0.315407133,-0.01716236956,-0.09366579859999999,-0.152513183,-0.5214139529999999,1.26875841,0.31612507799999995,0.322675695,0.4570819950000001,0.268536035,1.3127211699999999,,166.3939393939394,1,L03_NIRS-2019-08-13_006_trial05.txt,123.0
11,775.3599999999999,4.03671523,-0.26745384599999994,0.10825093720000001,-0.014216735319999998,-0.04290087463000001,-0.37517962800000004,1.25907934,0.318492812,0.30418506599999995,0.422757457,0.24411627599999997,1.28891669,,166.3939393939394,1,L03_NIRS-2019-08-13_006_trial05.txt,123.0
12,776.6400000000001,4.15134965,-0.168597327,0.259690259,0.0633765659,0.02098585365,-0.272367009,1.25026596,0.33182085499999997,0.302085856,0.386706637,0.217259345,1.25886742,,166.3939393939394,1,L03_NIRS-2019-08-13_006_trial05.txt,123.0
13,777.9200000000001,4.26741129,-0.09183661239999999,0.345809709,0.120280973,0.036838669899999996,-0.227407265,1.2313382699999997,0.338009378,0.295904314,0.34374677,0.18424631000000002,1.2219554400000001,,166.3939393939394,1,L03_NIRS-2019-08-13_006_trial05.txt,123.0
14,779.1999999999999,4.3145381700000005,-0.10597285920000002,0.292730866,0.09628632000000001,0.012980089667,-0.250200119,1.20270638,0.323624251,0.263158771,0.29478461899999997,0.14674572,1.18321148,,166.3939393939394,1,L03_NIRS-2019-08-13_006_trial05.txt,123.0
15,780.4799999999999,4.2799660699999995,-0.19660211800000002,0.18031285,0.0434751403,-0.010411809413,-0.29373373900000005,1.17703031,0.29843258699999997,0.21153243700000002,0.23928892200000002,0.11117386250000001,1.15274932,,166.3939393939394,1,L03_NIRS-2019-08-13_006_trial05.txt,123.0
16,781.76,4.20026676,-0.31401536300000005,0.0881584861,-0.0061683541100000005,-0.026842480600000003,-0.32401209999999997,1.1636103600000003,0.280323412,0.15827882399999998,0.18538792099999998,0.0857548786,1.13269508,,166.3939393939394,1,L03_NIRS-2019-08-13_006_trial05.txt,123.0
17,783.04,4.13280398,-0.396603269,0.045805482200000004,-0.0376700487,-0.0569049873,-0.34100944499999997,1.15967182,0.274366607,0.11653461300000001,0.13111199599999998,0.06950940230000001,1.1189863800000002,,166.3939393939394,1,L03_NIRS-2019-08-13_006_trial05.txt,123.0
18,784.3199999999999,4.10371006,-0.42083822300000007,0.0251378698,-0.0517735576,-0.10419819779999999,-0.36343712000000006,1.15171749,0.27115054799999994,0.08672077069999999,0.07664189930000001,0.0558217242,1.1055801900000002,,166.3939393939394,1,L03_NIRS-2019-08-13_006_trial05.txt,123.0
19,785.6000000000001,4.10658917,-0.40170851899999993,0.012773115499999998,-0.062247406299999995,-0.138153058,-0.388526847,1.13217769,0.259247566,0.0685588069,0.0312836926,0.041928443999999995,1.0905768000000002,,166.3939393939394,1,L03_NIRS-2019-08-13_006_trial05.txt,123.0
20,786.8800000000001,4.127122120000001,-0.356038241,0.0227679504,-0.06444487540000002,-0.10646544009999999,-0.37533918699999996,1.0992449199999998,0.23353979999999996,0.056593044599999996,0.00674008042,0.034374318099999995,1.0782006100000001,,166.3939393939394,1,L03_NIRS-2019-08-13_006_trial05.txt,123.0
21,788.16,4.1505702,-0.30545003000000004,0.0428881096,-0.08780560400000001,-0.03262198375,-0.329577732,1.0680020000000001,0.20141022200000003,0.038498145,0.0023994322,0.03660280309999999,1.06866697,,166.3939393939394,1,L03_NIRS-2019-08-13_006_trial05.txt,123.0
22,789.4399999999999,4.19756266,-0.23345081900000003,0.10648616520000001,-0.08029380519999998,0.047553355199999994,-0.259619023,1.0487150999999997,0.179761455,0.018233974009999997,0.006016934859999999,0.04364774650000001,1.05899989,,166.3939393939394,1,L03_NIRS-2019-08-13_006_trial05.txt,123.0
23,790.72,4.255894020000001,-0.165213232,0.161129231,-0.053225016,0.0723866105,-0.22244066999999998,1.0382858300000002,0.16756027999999998,-0.005771835376999999,0.003927764256,0.04469042,1.04232105,,166.3939393939394,1,L03_NIRS-2019-08-13_006_trial05.txt,123.0
24,792.0,4.3225614,-0.114800147,0.213357505,-0.009309250890000002,0.0441773605,-0.23114807899999995,1.03129202,0.15596612,-0.022399851000000002,-0.01000787573,0.0300951064,1.01966813,,166.3939393939394,1,L03_NIRS-2019-08-13_006_trial05.txt,123.0
25,793.28,4.3313476799999995,-0.12266629700000001,0.22905603600000002,0.0013716940593,-0.0008819474399999998,-0.280492358,1.010208399,0.13199665300000002,-0.039128210399999995,-0.039777770000000004,-0.0016212559250000005,0.9916071699999998,,166.3939393939394,1,L03_NIRS-2019-08-13_006_trial05.txt,123.0
26,794.5600000000001,4.28608521,-0.17203046600000002,0.23024691000000003,-0.02746419882,-0.0194522512,-0.32258181599999997,0.9802524699999997,0.10235096019999998,-0.054594466800000005,-0.0722783903,-0.0391117879,0.966123646,,166.3939393939394,1,L03_NIRS-2019-08-13_006_trial05.txt,123.0
27,795.84,4.24287147,-0.20332898500000002,0.239666735,-0.0600121059,0.0012862566570000004,-0.31267671500000005,0.955888825,0.0796171799,-0.06719164400000001,-0.09060670840000001,-0.06515335530000001,0.9510058969999999,,166.3939393939394,1,L03_NIRS-2019-08-13_006_trial05.txt,123.0
28,797.12,4.2471383,-0.170237272,0.236689294,-0.0783613882,0.0208962743,-0.2711865640000001,0.94507736,0.0631141409,-0.0805118286,-0.1045457171,-0.0746739397,0.9430292079999999,,166.3939393939394,1,L03_NIRS-2019-08-13_006_trial05.txt,123.0
29,798.3999999999999,4.29451638,-0.0910621062,0.17181468500000002,-0.0921836183,0.003800838639999999,-0.257684239,0.9355641700000001,0.0370915974,-0.105340649,-0.12582195000000002,-0.0760524274,0.9340450229999998,,166.3939393939394,1,L03_NIRS-2019-08-13_006_trial05.txt,123.0
30,799.6800000000001,4.35032006,-0.028456564730000005,0.04754221073300001,-0.137165617,-0.049154670100000006,-0.30622015900000005,0.920923929,-0.0022918188930000005,-0.13758201800000003,-0.149612831,-0.07924262230000001,0.9231354979999999,,166.3939393939394,1,L03_NIRS-2019-08-13_006_trial05.txt,123.0
31,800.96,4.3938497,-0.0118162774,-0.03563698292,-0.16848674,-0.0755762166,-0.36411278199999997,0.899632862,-0.04338917900000001,-0.156686842,-0.16925825500000002,-0.08322233809999999,0.9171602660000001,,166.3939393939394,1,L03_NIRS-2019-08-13_006_trial05.txt,123.0
32,802.2399999999999,4.38573562,-0.05330202460000001,-0.0539882105,-0.193520316,-0.06579484580000002,-0.403540716,0.868481249,-0.07679204079999999,-0.160159021,-0.17745048400000002,-0.08516777190000001,0.914898179,,166.3939393939394,1,L03_NIRS-2019-08-13_006_trial05.txt,123.0
33,803.5200000000001,4.34737879,-0.10251404069999999,-0.012782737880000002,-0.19386589800000004,-0.038906153900000004,-0.396937977,0.8366246979999999,-0.09178570820000001,-0.148035259,-0.178835559,-0.0847090116,0.915171243,,166.3939393939394,1,L03_NIRS-2019-08-13_006_trial05.txt,123.0
34,804.8,4.3334019999999995,-0.106520705,0.02702974038,-0.17702302799999997,-0.0246766572,-0.358844437,0.8202365080000001,-0.08926308420000002,-0.12917344299999997,-0.173287557,-0.0868047753,0.9134190449999998,,166.3939393939394,1,L03_NIRS-2019-08-13_006_trial05.txt,123.0
35,806.0799999999999,4.35655881,-0.0536571649,0.035984548299999995,-0.154919444,-0.025485576,-0.32047873499999996,0.815201679,-0.0869133218,-0.111739738,-0.17074064800000002,-0.095155401,0.9072431700000001,,166.3939393939394,1,L03_NIRS-2019-08-13_006_trial05.txt,123.0
36,807.3599999999999,4.37830375,-0.0014094099200000001,-0.0134283138,-0.164764503,-0.047251324,-0.33621073600000007,0.8099634600000002,-0.10279884530000001,-0.108185065,-0.17510915200000002,-0.110484607,0.898931074,,166.3939393939394,1,L03_NIRS-2019-08-13_006_trial05.txt,123.0
37,808.6400000000001,4.3609354300000005,-0.01797759698,-0.10831650910000001,-0.221714208,-0.0870324944,-0.412309331,0.805720174,-0.127499261,-0.12032794,-0.184387797,-0.12589037399999997,0.895072395,,166.3939393939394,1,L03_NIRS-2019-08-13_006_trial05.txt,123.0
38,809.9200000000001,4.30838096,-0.1015629103,-0.20393387600000001,-0.28285373599999997,-0.12386246100000001,-0.499693855,0.8033385599999999,-0.13938811499999998,-0.142049971,-0.19625049199999997,-0.127424768,0.899210055,,166.3939393939394,1,L03_NIRS-2019-08-13_006_trial05.txt,123.0
39,811.1999999999999,4.23485832,-0.222137981,-0.28787041,-0.35131811,-0.17705189500000001,-0.5892819009999999,0.806784508,-0.13123325,-0.16116661799999998,-0.200261287,-0.11453961500000001,0.9062749060000002,,166.3939393939394,1,L03_NIRS-2019-08-13_006_trial05.txt,123.0
40,812.4799999999999,4.163997650000001,-0.334941317,-0.355646635,-0.41116434900000004,-0.24912413,-0.6679072730000001,0.819697892,-0.10092426969999999,-0.16632767599999998,-0.19707476899999998,-0.09533419800000001,0.911164758,,166.3939393939394,1,L03_NIRS-2019-08-13_006_trial05.txt,123.0
41,813.76,4.10392416,-0.40769695100000003,-0.401132709,-0.443638106,-0.311372489,-0.7283194190000001,0.8395701399999999,-0.0586414287,-0.15266873800000003,-0.193258599,-0.07947066479999998,0.9085599569999999,,166.3939393939394,1,L03_NIRS-2019-08-13_006_trial05.txt,123.0
42,815.04,4.0659806000000005,-0.432474261,-0.3833902,-0.41547151800000004,-0.30326328999999996,-0.7355028979999999,0.8583955639999999,-0.021901232700000002,-0.12166824300000001,-0.180903606,-0.06747201500000001,0.9015898600000002,,166.3939393939394,1,L03_NIRS-2019-08-13_006_trial05.txt,123.0
43,816.3199999999999,4.04455469,-0.42717439700000004,-0.311725926,-0.331111256,-0.22138717199999997,-0.6894641759999999,0.8709816439999999,-0.001764302607,-0.086427663,-0.15664626399999998,-0.058751910500000004,0.896218964,,166.3939393939394,1,L03_NIRS-2019-08-13_006_trial05.txt,123.0
44,817.6000000000001,4.032594340000001,-0.41767595799999996,-0.22168235700000002,-0.208441477,-0.11435192139999999,-0.6138591769999999,0.881124864,0.00522048726,-0.05713495049999999,-0.135055787,-0.05518632560000001,0.8955190250000001,,166.3939393939394,1,L03_NIRS-2019-08-13_006_trial05.txt,123.0
45,818.8800000000001,4.0201408800000005,-0.4250469069999999,-0.17454156799999998,-0.10467216979999998,-0.039695464800000003,-0.554057618,0.891289824,0.00979415264,-0.04506372389999999,-0.12231709599999999,-0.0571024776,0.8973283349999999,,166.3939393939394,1,L03_NIRS-2019-08-13_006_trial05.txt,123.0
46,820.1600000000001,4.00493869,-0.45689750399999995,-0.179831597,-0.059124708800000016,-0.0171522618,-0.5266159659999999,0.9059803689999999,0.025764615500000004,-0.045459481499999996,-0.11027257800000001,-0.06378190289999999,0.9012953979999999,,166.3939393939394,1,L03_NIRS-2019-08-13_006_trial05.txt,123.0
47,821.4399999999999,3.9893178799999993,-0.500655834,-0.19362397199999998,-0.04215575480000001,-0.0214618136,-0.5237930709999999,0.921662557,0.0566309293,-0.0414921915,-0.1020995141,-0.0762072124,0.903962831,,166.3939393939394,1,L03_NIRS-2019-08-13_006_trial05.txt,123.0
48,822.7199999999999,3.9752092699999997,-0.528039502,-0.16951876700000001,-0.02375083764,-0.01253904087,-0.527709225,0.9294531619999999,0.08759972740000001,-0.023467240500000004,-0.09647516739999999,-0.0919998033,0.9016429979999998,,166.3939393939394,1,L03_NIRS-2019-08-13_006_trial05.txt,123.0
49,824.0,3.9782804300000003,-0.5207672750000001,-0.1078752328,0.011507272919999999,0.02423795998,-0.5205885000000001,0.9300888129999999,0.10401651299999999,0.001476114357,-0.0927088059,-0.1051104391,0.89584195,,166.3939393939394,1,L03_NIRS-2019-08-13_006_trial05.txt,123.0
50,825.2800000000001,4.00043246,-0.483943542,-0.07355365979999999,0.0261532655,0.0582420162,-0.51355137,0.9283880640000002,0.10399953170000001,0.018232539399999997,-0.08827092299999999,-0.11186083799999999,0.89049105,,166.3939393939394,1,L03_NIRS-2019-08-13_006_trial05.txt,123.0
51,826.5599999999998,4.027696610000001,-0.433974849,-0.08497969589999999,0.020662041319999998,0.07567998270000001,-0.5198048,0.918440157,0.0806809592,0.023667994200000004,-0.0929013742,-0.11470349000000002,0.8818711799999999,,166.3939393939394,1,L03_NIRS-2019-08-13_006_trial05.txt,123.0
52,827.8399999999999,4.04645483,-0.39850227800000004,-0.13621124899999998,-0.007328220732,0.0727016746,-0.558362689,0.9032846730000001,0.045327520200000006,0.0216421332,-0.1018661944,-0.116667644,0.870193974,,166.3939393939394,1,L03_NIRS-2019-08-13_006_trial05.txt,123.0
53,829.1200000000001,4.05239369,-0.38062904200000003,-0.15738687,-0.0259706588,0.07948846470000001,-0.5966681649999999,0.88886185,0.01855961473,0.0262244453,-0.10797052600000001,-0.11618387200000002,0.859717919,,166.3939393939394,1,L03_NIRS-2019-08-13_006_trial05.txt,123.0
54,830.4,4.0342454,-0.388859647,-0.15790673899999996,-0.0318683704,0.0825725297,-0.6564971770000001,0.871774168,-0.007182965081999999,0.0305968272,-0.108805058,-0.11909470200000001,0.844659834,,166.3939393939394,1,L03_NIRS-2019-08-13_006_trial05.txt,123.0
55,831.68,4.01740871,-0.385018339,-0.126463378,-0.0284264803,0.0850580155,-0.71639942,0.856899204,-0.0303221778,0.03669671100000001,-0.1040366433,-0.12463955000000002,0.829239196,,166.3939393939394,1,L03_NIRS-2019-08-13_006_trial05.txt,123.0
56,832.96,4.074217639999999,-0.309047035,-0.06466532170000001,0.02339879026,0.132801538,-0.6863230820000001,0.853769904,-0.040106687099999996,0.0428496548,-0.09117906099999999,-0.12569429299999998,0.8256430399999999,,166.3939393939394,1,L03_NIRS-2019-08-13_006_trial05.txt,123.0
57,834.2400000000001,4.2099806200000005,-0.174328958,-0.006544717105999999,0.10942856599999999,0.24007192000000002,-0.5528813990000001,0.86631231,-0.032069715000000006,0.04974567079999999,-0.0669664892,-0.119116768,0.836271684,,166.3939393939394,1,L03_NIRS-2019-08-13_006_trial05.txt,123.0
58,835.5200000000001,4.37112501,-0.0494333953,0.0431596295,0.217100722,0.380471296,-0.38175353199999995,0.88926221,-0.013225578890000003,0.059337203299999995,-0.042906769899999996,-0.109066865,0.8499807259999999,,166.3939393939394,1,L03_NIRS-2019-08-13_006_trial05.txt,123.0
59,836.8,4.47534239,-0.008273181020000001,0.05355023860000001,0.27663494200000005,0.48231647899999996,-0.27445541,0.911620452,0.0127355011115,0.065204219,-0.030970932700000002,-0.10134372629999999,0.8571741279999999,,166.3939393939394,1,L03_NIRS-2019-08-13_006_trial05.txt,123.0
60,838.0799999999999,4.486890310000001,-0.05626038219999999,0.0425211815,0.287328307,0.5205927320000001,-0.24426251899999998,0.923816334,0.0396339388,0.0636737342,-0.042482246700000004,-0.0995292936,0.8505817480000001,,166.3939393939394,1,L03_NIRS-2019-08-13_006_trial05.txt,123.0
61,839.36,4.39287086,-0.16997892,-0.019822414920000003,0.246537944,0.474739404,-0.30187698100000004,0.9176248680000001,0.044415048299999996,0.0405558421,-0.0681131869,-0.108389965,0.8283341419999999,,166.3939393939394,1,L03_NIRS-2019-08-13_006_trial05.txt,123.0
62,840.64,4.24319028,-0.289445492,-0.0716565428,0.197939801,0.385885562,-0.39967566099999996,0.9016305430000001,0.0364283462,0.0180406606,-0.0993841069,-0.123133216,0.799235809,,166.3939393939394,1,L03_NIRS-2019-08-13_006_trial05.txt,123.0
63,841.9200000000001,4.143871399999999,-0.3430672,-0.0582247686,0.214820254,0.344301287,-0.433256819,0.885004683,0.0366936113,0.00938059127,-0.118264382,-0.132570406,0.7783807380000001,,166.3939393939394,1,L03_NIRS-2019-08-13_006_trial05.txt,123.0
64,843.2,4.12911437,-0.326974245,0.01577501056,0.29815080600000005,0.38597576000000006,-0.373188122,0.8710735809999999,0.04498796580000001,0.015068144600000003,-0.121945424,-0.13099549500000002,0.771703469,,166.3939393939394,1,L03_NIRS-2019-08-13_006_trial05.txt,123.0
65,844.4799999999999,4.17444283,-0.28357347999999993,0.10821583580000001,0.399113779,0.45464740299999995,-0.28035256900000005,0.868272606,0.054613515700000004,0.028285753599999998,-0.11013215699999998,-0.12317574899999999,0.7740456759999998,,166.3939393939394,1,L03_NIRS-2019-08-13_006_trial05.txt,123.0
66,845.7599999999999,4.216973390000001,-0.253660219,0.166434912,0.4638437430000001,0.48435741199999993,-0.22581490899999998,0.8663295270000001,0.058228717,0.03866509480000001,-0.09826703319999999,-0.113068949,0.7777768220000001,,166.3939393939394,1,L03_NIRS-2019-08-13_006_trial05.txt,123.0
67,847.04,4.240284689999999,-0.236748481,0.187343557,0.5096706120000001,0.48761797199999996,-0.198694004,0.862182317,0.058674918599999994,0.043096970899999996,-0.09181222330000002,-0.1023262291,0.777621578,,166.3939393939394,1,L03_NIRS-2019-08-13_006_trial05.txt,123.0
68,848.32,4.257245619999999,-0.20235211300000003,0.211360605,0.5589954799999999,0.508627326,-0.163996143,0.8613145860000001,0.05996809330000001,0.048412962700000006,-0.08076523529999999,-0.09040703870000001,0.777227105,,166.3939393939394,1,L03_NIRS-2019-08-13_006_trial05.txt,123.0
69,849.6,4.28084535,-0.155126879,0.26948782000000004,0.6050194099999999,0.55277302,-0.128089973,0.8640594819999998,0.06081525559999999,0.061600585299999996,-0.0684569669,-0.07933770920000001,0.7807052879999999,,166.3939393939394,1,L03_NIRS-2019-08-13_006_trial05.txt,123.0
70,850.8800000000001,4.31319937,-0.11903981000000001,0.33580517800000004,0.626865341,0.591101128,-0.12055089000000001,0.868252072,0.05957314600000001,0.07242546599999998,-0.06110037289999999,-0.0725429963,0.7882735969999999,,166.3939393939394,1,L03_NIRS-2019-08-13_006_trial05.txt,123.0
71,852.1600000000001,4.37122648,-0.0723280152,0.390693359,0.641048488,0.631636554,-0.108174714,0.87249278,0.053547501700000014,0.0713763309,-0.0627818985,-0.06926059209999999,0.8044052049999999,,166.3939393939394,1,L03_NIRS-2019-08-13_006_trial05.txt,123.0
72,853.4399999999999,4.45644522,0.01701809565,0.454570983,0.668492326,0.6691395360000001,-0.0780579628,0.8740794080000001,0.0383613807,0.0684928389,-0.0608778884,-0.0724746906,0.8210157,,166.3939393939394,1,L03_NIRS-2019-08-13_006_trial05.txt,123.0
73,854.7199999999999,4.54906849,0.1390414309,0.5430807590000001,0.7390729849999998,0.7079951739999999,-0.030408181968,0.8654855619999999,0.01625041969,0.072162735,-0.051916584,-0.07849289210000002,0.8332956509999999,,166.3939393939394,1,L03_NIRS-2019-08-13_006_trial05.txt,123.0
74,856.0,4.622413359999999,0.263700183,0.6469332659999999,0.863794027,0.769098928,0.031429504399999995,0.8469664610000001,-0.010580715507,0.0765818946,-0.041368775499999996,-0.08403884139999998,0.8373827869999999,,166.3939393939394,1,L03_NIRS-2019-08-13_006_trial05.txt,123.0
75,857.2800000000001,4.66187687,0.34909851000000003,0.7375105160000001,0.977862708,0.8349160330000001,0.07956498769999999,0.8262895410000001,-0.0400418416,0.0750597018,-0.0329894755,-0.0908194776,0.831568405,,166.3939393939394,1,L03_NIRS-2019-08-13_006_trial05.txt,123.0
76,858.5599999999998,4.661679260000001,0.36376045500000004,0.760487786,1.0440172,0.8616862950000002,0.080501779,0.802022831,-0.0730283029,0.05308947940000001,-0.03993313590000001,-0.10073205869999999,0.818833433,,166.3939393939394,1,L03_NIRS-2019-08-13_006_trial05.txt,123.0
77,859.8399999999999,4.6110235,0.28017373500000003,0.668750577,0.992001812,0.7925272539999999,0.00802100883,0.7897904069999999,-0.12250888600000001,0.010313227931,-0.07487150229999999,-0.126329625,0.796558463,,166.3939393939394,1,L03_NIRS-2019-08-13_006_trial05.txt,123.0
78,861.1200000000001,4.545794259999999,0.176814431,0.537478146,0.863293458,0.6790627869999999,-0.08668676289999999,0.8024452419999999,-0.16432692100000001,-0.025015329999999995,-0.12592546300000002,-0.15876357000000002,0.7727690890000001,,166.3939393939394,1,L03_NIRS-2019-08-13_006_trial05.txt,123.0
79,862.4,4.53443859,0.143841173,0.49954069200000006,0.764319651,0.6272259580000001,-0.122602129,0.84519891,-0.177422138,-0.019435139030000003,-0.160139666,-0.185548904,0.755180736,,166.3939393939394,1,L03_NIRS-2019-08-13_006_trial05.txt,123.0
80,863.68,4.60678287,0.20238702500000003,0.599202061,0.7621095580000001,0.693786623,-0.05189144842999999,0.900929567,-0.15704879000000002,0.023858112300000005,-0.164679123,-0.195456502,0.7538692710000001,,166.3939393939394,1,L03_NIRS-2019-08-13_006_trial05.txt,123.0
81,864.96,4.7299013,0.30974041700000005,0.792251977,0.8724375459999999,0.8570935780000001,0.1060934582,0.947893742,-0.11766033810000001,0.0829023826,-0.146084394,-0.18767631999999995,0.7684415729999999,,166.3939393939394,1,L03_NIRS-2019-08-13_006_trial05.txt,123.0
82,866.2400000000001,4.838137989999999,0.36996954,0.954181907,1.009207174,1.005343844,0.247837049,0.9711627340000002,-0.07949321709999999,0.12863613799999998,-0.120422882,-0.175332549,0.785880776,,166.3939393939394,1,L03_NIRS-2019-08-13_006_trial05.txt,123.0
83,867.5200000000001,4.89206949,0.34797763899999995,0.9994147790000001,1.1354604599999998,1.0904590500000002,0.31934592100000003,0.962377822,-0.0519258318,0.13252586900000002,-0.10584944,-0.16335809500000004,0.796798674,,166.3939393939394,1,L03_NIRS-2019-08-13_006_trial05.txt,123.0
84,868.8,4.88352521,0.251575573,0.9239713459999999,1.1893633000000001,1.1010472,0.311097143,0.9438490769999998,-0.0434993154,0.0994107617,-0.108375777,-0.161793641,0.7956332660000001,,166.3939393939394,1,L03_NIRS-2019-08-13_006_trial05.txt,123.0
85,870.0799999999999,4.83518071,0.15268264,0.819302167,1.17936562,1.06686161,0.24433901999999996,0.9341651120000002,-0.0304973983,0.060652995099999996,-0.125003154,-0.166513376,0.782556882,,166.3939393939394,1,L03_NIRS-2019-08-13_006_trial05.txt,123.0
86,871.36,4.81154859,0.11917766700000001,0.767753381,1.14870754,1.03735443,0.17631321099999997,0.938836673,-0.009472770425,0.0329262336,-0.14391572,-0.17149151799999998,0.7628372210000001,,166.3939393939394,1,L03_NIRS-2019-08-13_006_trial05.txt,123.0
87,872.64,4.84922116,0.168834167,0.8026654290000002,1.1440281100000003,1.02772416,0.148187534,0.948459991,0.00589165636,0.019057828800000003,-0.169058376,-0.179027148,0.7448219540000001,,166.3939393939394,1,L03_NIRS-2019-08-13_006_trial05.txt,123.0
88,873.9200000000001,4.915313160000001,0.24475089399999997,0.8923804780000001,1.16989671,1.0242737499999999,0.15166953,0.9523489789999999,0.0025555520150000004,0.018322557,-0.19160963800000003,-0.19284124900000005,0.728813416,,166.3939393939394,1,L03_NIRS-2019-08-13_006_trial05.txt,123.0
89,875.2,4.951699260000001,0.268338042,0.9712812820000002,1.2017823399999998,0.9984699619999999,0.13915077199999998,0.9408369929999999,-0.02248348638,0.0271304251,-0.212409864,-0.21495786900000002,0.70981611,,166.3939393939394,1,L03_NIRS-2019-08-13_006_trial05.txt,123.0
90,876.4799999999999,4.94307351,0.23867686200000002,1.02652146,1.2460446299999999,0.993133083,0.14893751500000002,0.91434847,-0.0564433615,0.0292424368,-0.226445364,-0.234223026,0.6913415689999999,,166.3939393939394,1,L03_NIRS-2019-08-13_006_trial05.txt,123.0
91,877.7599999999999,4.90963573,0.20732795199999998,1.08076133,1.2921707599999999,1.02668544,0.19968122900000002,0.8918770950000001,-0.0781996938,0.0265648251,-0.22566401700000002,-0.24625167,0.6774947630000001,,166.3939393939394,1,L03_NIRS-2019-08-13_006_trial05.txt,123.0
92,879.04,4.88179844,0.19005701,1.1295767700000001,1.33256124,1.05775467,0.255970473,0.884097311,-0.0830602005,0.021951507800000002,-0.22316822400000005,-0.257003427,0.6615293180000001,,166.3939393939394,1,L03_NIRS-2019-08-13_006_trial05.txt,123.0
93,880.32,4.84544349,0.17150347299999996,1.1266752700000002,1.31820994,1.0393562,0.260797844,0.873195819,-0.08238950059999998,0.005669883360000001,-0.23454070700000001,-0.26870818500000004,0.6411702970000001,,166.3939393939394,1,L03_NIRS-2019-08-13_006_trial05.txt,123.0
94,881.6,4.78178813,0.11703891509999997,1.025305335,1.2721189,0.9896861329999999,0.22299699900000003,0.850414168,-0.0902516473,-0.0389495328,-0.26267220599999996,-0.276170751,0.627002279,,166.3939393939394,1,L03_NIRS-2019-08-13_006_trial05.txt,123.0
95,882.8800000000001,4.7052295299999995,0.027580060282000003,0.861783561,1.2056883800000002,0.935293143,0.16684788199999995,0.827506537,-0.1063776512,-0.09734975399999998,-0.286150773,-0.27733553899999996,0.6241153269999999,,166.3939393939394,1,L03_NIRS-2019-08-13_006_trial05.txt,123.0
96,883.712,4.661316566666667,-0.018890204333333334,0.7614159266666666,1.1602336,0.91652756,0.14304263666666667,0.8136292866666667,-0.11459216,-0.13075771333333333,-0.29600634333333337,-0.27201275333333336,0.62963572,,166.3939393939394,1,L03_NIRS-2019-08-13_006_trial05.txt,123.0
