,time,S3_D4_HbO,S3_D3_HbO,S2_D3_HbO,S2_D2_HbO,S1_D2_HbO,S1_D1_HbO,S3_D4_HbR,S3_D3_HbR,S2_D3_HbR,S2_D2_HbR,S1_D2_HbR,S1_D1_HbR,Var14,score,labelnum,filename,total_time
0,442.688,-0.429949907,-0.266827909,-0.9263100159999998,-0.22266542500000003,-0.757950181,0.12566238270000002,0.24994456800000003,0.18578592800000002,0.0863234279,0.37085296700000003,0.345417899,0.72660032,,217.84848484848484,1,L03_NIRS-2019-08-17_007_trial05.txt,67.0
1,443.968,-0.282033688,-0.09799194809999998,-0.6806137579999999,-0.06894995732,-0.6766386339999999,0.235775196,0.277764383,0.212642509,0.159318685,0.40419533799999996,0.350859913,0.738737734,,217.84848484848484,1,L03_NIRS-2019-08-17_007_trial05.txt,67.0
2,445.24799999999993,-0.205156996,-0.04497502810000001,-0.558257492,0.07272769030000001,-0.613503468,0.306894632,0.29107997500000005,0.21696649299999998,0.20024430799999998,0.42301472,0.346553007,0.7398548470000001,,217.84848484848484,1,L03_NIRS-2019-08-17_007_trial05.txt,67.0
3,446.52799999999996,-0.21931588300000002,-0.0847962766,-0.556891437,0.178207783,-0.5732556129999999,0.343360971,0.29526342399999994,0.22045877100000003,0.202464333,0.434467268,0.340526082,0.737471244,,217.84848484848484,1,L03_NIRS-2019-08-17_007_trial05.txt,67.0
4,447.808,-0.267238348,-0.17583314799999997,-0.6343964689999999,0.19758917999999998,-0.5529130629999999,0.34846397799999995,0.297649437,0.21294991900000002,0.15646311399999996,0.410943289,0.327316034,0.720425401,,217.84848484848484,1,L03_NIRS-2019-08-17_007_trial05.txt,67.0
5,449.088,-0.281000991,-0.22435056799999997,-0.6972120659999999,0.15748718,-0.5279037550000001,0.339092404,0.30212633,0.199988467,0.0938011322,0.363584601,0.30790224800000005,0.6900493400000001,,217.84848484848484,1,L03_NIRS-2019-08-17_007_trial05.txt,67.0
6,450.36799999999994,-0.21306353800000002,-0.193302826,-0.682320457,0.10877127530000001,-0.49206033299999996,0.350844507,0.31042714900000007,0.18770248500000003,0.04981519699999999,0.313628863,0.28553131600000003,0.658569417,,217.84848484848484,1,L03_NIRS-2019-08-17_007_trial05.txt,67.0
7,451.64799999999997,-0.1121607497,-0.14571457000000004,-0.647044088,0.05501830320000001,-0.48445570700000007,0.352008308,0.315214353,0.17221458900000003,0.028712824000000005,0.27406838600000005,0.26440131200000005,0.628581493,,217.84848484848484,1,L03_NIRS-2019-08-17_007_trial05.txt,67.0
8,452.928,-0.051720571400000005,-0.13324196000000002,-0.640611341,0.01835556323,-0.500713732,0.343082373,0.309102706,0.15196368300000002,0.0210964131,0.25053666799999996,0.24870986399999997,0.601858324,,217.84848484848484,1,L03_NIRS-2019-08-17_007_trial05.txt,67.0
9,454.20799999999997,-0.0738733198,-0.17408863800000002,-0.675736597,-0.00010010615000000007,-0.534704711,0.32010591800000004,0.292849638,0.134647128,0.0170409804,0.234317345,0.23938865800000003,0.576488587,,217.84848484848484,1,L03_NIRS-2019-08-17_007_trial05.txt,67.0
10,455.488,-0.13942162000000002,-0.21525635399999996,-0.706448571,0.02019843909,-0.5505436730000001,0.321107942,0.27745852000000004,0.138969069,0.0177734562,0.23518652,0.240699137,0.559765302,,217.84848484848484,1,L03_NIRS-2019-08-17_007_trial05.txt,67.0
11,456.76800000000003,-0.178681641,-0.252830145,-0.742202529,0.01648376541,-0.554976472,0.32843842399999995,0.267765809,0.138381854,-0.0044056469268,0.21856758599999998,0.23826895399999995,0.537481302,,217.84848484848484,1,L03_NIRS-2019-08-17_007_trial05.txt,67.0
12,458.04799999999994,-0.17798264699999997,-0.270518071,-0.7715312289999999,-0.020261632462000002,-0.5564653610000001,0.309943651,0.26034678,0.12712911899999996,-0.0392830463,0.18352275099999998,0.22941885700000003,0.5075412439999999,,217.84848484848484,1,L03_NIRS-2019-08-17_007_trial05.txt,67.0
13,459.3280000000001,-0.147126063,-0.27651759,-0.793471658,-0.07075319449999999,-0.5587020329999999,0.278794684,0.254661953,0.11193319099999999,-0.0742552446,0.146570823,0.21431893500000002,0.479194394,,217.84848484848484,1,L03_NIRS-2019-08-17_007_trial05.txt,67.0
14,460.608,-0.10039865560000001,-0.285113243,-0.828215789,-0.1107866402,-0.56784597,0.240396717,0.24446670000000004,0.0962008071,-0.10716451119999999,0.1117247485,0.198757745,0.45442650800000006,,217.84848484848484,1,L03_NIRS-2019-08-17_007_trial05.txt,67.0
15,461.88800000000003,-0.06478073399999999,-0.294695874,-0.8514204060000001,-0.11925044900000001,-0.567445015,0.22190923599999998,0.225006809,0.08409874070000001,-0.12765696399999998,0.0877946836,0.18853138500000002,0.43409933599999995,,217.84848484848484,1,L03_NIRS-2019-08-17_007_trial05.txt,67.0
16,463.16799999999995,-0.03861491660000001,-0.28868796199999996,-0.8314651230000001,-0.0926387046,-0.548055993,0.23633376300000003,0.20137444300000001,0.0778287195,-0.13090178,0.07175050810000001,0.18581230699999998,0.415844243,,217.84848484848484,1,L03_NIRS-2019-08-17_007_trial05.txt,67.0
17,464.44800000000004,-0.0007286297260000005,-0.24106960299999997,-0.729449897,-0.02603115848,-0.48854402300000005,0.30534933200000003,0.184393288,0.0873544628,-0.112337902,0.07037999689999999,0.192013538,0.401790838,,217.84848484848484,1,L03_NIRS-2019-08-17_007_trial05.txt,67.0
18,465.72800000000007,0.072842834,-0.16970343,-0.576090428,0.052797511500000005,-0.41130846200000004,0.400236062,0.179078399,0.0991789774,-0.0915261812,0.06827935119999999,0.196220175,0.385844838,,217.84848484848484,1,L03_NIRS-2019-08-17_007_trial05.txt,67.0
19,467.008,0.114105546,-0.140089267,-0.4809698400000001,0.08141869040000001,-0.377840836,0.454169457,0.172239604,0.09737322499999998,-0.0874678797,0.057678141100000004,0.19081421699999998,0.3642195409999999,,217.84848484848484,1,L03_NIRS-2019-08-17_007_trial05.txt,67.0
20,468.288,0.0726268711,-0.209417048,-0.5331850430000001,0.03903699174000001,-0.401189386,0.4365044339999999,0.15641284900000002,0.0729949604,-0.11522543860000001,0.0344043386,0.17416455,0.33203577199999995,,217.84848484848484,1,L03_NIRS-2019-08-17_007_trial05.txt,67.0
21,469.56800000000004,-0.041867200469,-0.358368445,-0.7041112009999999,-0.06078753789999999,-0.480705529,0.350666878,0.132293198,0.0375164284,-0.15957028599999998,0.006471799099999999,0.155051241,0.295422913,,217.84848484848484,1,L03_NIRS-2019-08-17_007_trial05.txt,67.0
22,470.84799999999996,-0.170488629,-0.510238954,-0.88754797,-0.1746483,-0.5768151880000001,0.233983819,0.10549032220000001,0.0063321133611,-0.19888287,-0.01890431862,0.143881755,0.260790865,,217.84848484848484,1,L03_NIRS-2019-08-17_007_trial05.txt,67.0
23,472.128,-0.255601608,-0.5988872679999999,-0.9911536310000001,-0.26744334599999997,-0.658938918,0.1200481264,0.0846597102,-0.01129306082,-0.21471384,-0.0399496653,0.14394216899999998,0.231291839,,217.84848484848484,1,L03_NIRS-2019-08-17_007_trial05.txt,67.0
24,473.4080000000001,-0.283187022,-0.6124781169999999,-0.986868393,-0.317247572,-0.7014954440000001,0.0406438773,0.0757518354,-0.012617830300000002,-0.20337182599999998,-0.045170769900000005,0.15481978300000002,0.211301547,,217.84848484848484,1,L03_NIRS-2019-08-17_007_trial05.txt,67.0
25,474.688,-0.265349202,-0.5876717600000001,-0.9307505620000001,-0.32048673800000005,-0.713421209,0.00251385683,0.0795622698,-0.00702985512,-0.180898643,-0.045203129099999996,0.166835484,0.202686762,,217.84848484848484,1,L03_NIRS-2019-08-17_007_trial05.txt,67.0
26,475.96799999999996,-0.24986865900000002,-0.5802657869999999,-0.9244949440000001,-0.330790987,-0.7232226129999999,-0.01530667886,0.0844929738,-0.00710436731,-0.17238103899999999,-0.0460493915,0.17357938899999997,0.20097549299999998,,217.84848484848484,1,L03_NIRS-2019-08-17_007_trial05.txt,67.0
27,477.24799999999993,-0.269906939,-0.6218496090000001,-1.003737319,-0.38016738000000005,-0.751194468,-0.0419492221,0.0843301645,-0.0184006635,-0.18431991799999997,-0.0571381786,0.17557868699999998,0.19844267200000004,,217.84848484848484,1,L03_NIRS-2019-08-17_007_trial05.txt,67.0
28,478.52799999999996,-0.316065406,-0.6760721749999999,-1.1128418100000002,-0.44099638699999993,-0.7841776300000001,-0.0808127264,0.0778059863,-0.0363896545,-0.210046759,-0.0706370646,0.172586033,0.193668585,,217.84848484848484,1,L03_NIRS-2019-08-17_007_trial05.txt,67.0
29,479.808,-0.32830197600000005,-0.670391913,-1.13622368,-0.479351167,-0.804892887,-0.123414787,0.0725258926,-0.053679868900000004,-0.230696372,-0.0869387159,0.16108321,0.18586051599999998,,217.84848484848484,1,L03_NIRS-2019-08-17_007_trial05.txt,67.0
30,481.0879999999999,-0.287033357,-0.592424506,-1.050888827,-0.46661127599999996,-0.7889398870000001,-0.128374263,0.0695822879,-0.06456692380000001,-0.23698837300000003,-0.10288753640000001,0.14712627299999997,0.17906151499999998,,217.84848484848484,1,L03_NIRS-2019-08-17_007_trial05.txt,67.0
31,482.36800000000005,-0.14557402260000002,-0.417857075,-0.8033934250000001,-0.350555277,-0.6747353620000001,-0.013957656960000005,0.0743267505,-0.05674431950000001,-0.213974877,-0.10505542099999998,0.14079031900000002,0.17452454300000003,,217.84848484848484,1,L03_NIRS-2019-08-17_007_trial05.txt,67.0
32,483.64799999999997,0.127000806,-0.13058668539999999,-0.36646780600000006,-0.07740134521,-0.4303775580000001,0.262629638,0.08691596039999998,-0.025180931980000005,-0.15719377299999998,-0.09358288840000001,0.14178585100000002,0.170901103,,217.84848484848484,1,L03_NIRS-2019-08-17_007_trial05.txt,67.0
33,484.928,0.4849489699999999,0.2079353851,0.1800416117,0.27877984400000005,-0.11167011204000003,0.64574409,0.09758659859999999,0.02264006051,-0.083008703,-0.0719102568,0.14407373999999998,0.16047171799999999,,217.84848484848484,1,L03_NIRS-2019-08-17_007_trial05.txt,67.0
34,486.20799999999997,0.828449904,0.494291087,0.677056833,0.605649589,0.1806543703,1.013703494,0.08840930550000001,0.0640878272,-0.0221289293,-0.0586194596,0.14047849799999998,0.134587088,,217.84848484848484,1,L03_NIRS-2019-08-17_007_trial05.txt,67.0
35,487.488,1.059722277,0.628518414,0.9611572120000001,0.809177573,0.37424989399999997,1.2555010000000002,0.0462732419,0.06602359420000001,-0.0192263568,-0.0702164568,0.118547921,0.08462687819999999,,217.84848484848484,1,L03_NIRS-2019-08-17_007_trial05.txt,67.0
36,488.76800000000003,1.12565188,0.5806594249999999,1.0005087229999998,0.852666352,0.41462355500000003,1.3109583500000002,-0.02211612945,0.028436313329000002,-0.06396892600000001,-0.10453555020000001,0.0779372533,0.02084416931,,217.84848484848484,1,L03_NIRS-2019-08-17_007_trial05.txt,67.0
37,490.04799999999994,1.0240737500000001,0.37331998499999997,0.777881915,0.7527364029999999,0.32090591000000007,1.1968392700000001,-0.1073337128,-0.039160183450000004,-0.149992607,-0.14939438300000002,0.03289787620000001,-0.0420101121,,217.84848484848484,1,L03_NIRS-2019-08-17_007_trial05.txt,67.0
38,491.3280000000001,0.8383353660000001,0.1254642866,0.43319705300000005,0.5968507350000001,0.18678849999999997,1.012349977,-0.18752277699999997,-0.1089339592,-0.24217337200000003,-0.190115342,-0.007034084140000001,-0.09019717060000002,,217.84848484848484,1,L03_NIRS-2019-08-17_007_trial05.txt,67.0
39,492.608,0.666979303,-0.05109194145,0.12238892780000003,0.4700961200000001,0.08316390119999999,0.8426964719999999,-0.240818443,-0.158434505,-0.31055120999999997,-0.21457958800000002,-0.03638539410000001,-0.116047006,,217.84848484848484,1,L03_NIRS-2019-08-17_007_trial05.txt,67.0
40,493.88800000000003,0.558784183,-0.13512357400000002,-0.07204722330999999,0.378895225,0.006588850089999998,0.723328148,-0.260022142,-0.176197452,-0.335616566,-0.218534265,-0.05324018359999999,-0.12007108200000001,,217.84848484848484,1,L03_NIRS-2019-08-17_007_trial05.txt,67.0
41,495.16799999999995,0.5002664620000001,-0.184300359,-0.179172932,0.321349179,-0.060232768000000006,0.64128074,-0.253146215,-0.171620945,-0.322783511,-0.20663434800000005,-0.0587565764,-0.11338967100000001,,217.84848484848484,1,L03_NIRS-2019-08-17_007_trial05.txt,67.0
42,496.44800000000004,0.47909952199999994,-0.232615878,-0.25664287799999996,0.293894464,-0.1110369017,0.591812501,-0.23791620900000005,-0.164269155,-0.30159291099999996,-0.19374054400000001,-0.060142033299999995,-0.10867377599999999,,217.84848484848484,1,L03_NIRS-2019-08-17_007_trial05.txt,67.0
43,497.72800000000007,0.45533517100000004,-0.283849433,-0.33013333100000003,0.275964916,-0.158982809,0.557334691,-0.23060822399999997,-0.15753887800000002,-0.27652382499999995,-0.183552478,-0.06215107599999999,-0.106835952,,217.84848484848484,1,L03_NIRS-2019-08-17_007_trial05.txt,67.0
44,499.008,0.42404766699999996,-0.330864005,-0.443359914,0.230433071,-0.19267643299999998,0.5251719239999998,-0.23073395300000002,-0.159495037,-0.274661832,-0.184711187,-0.0639534016,-0.112892082,,217.84848484848484,1,L03_NIRS-2019-08-17_007_trial05.txt,67.0
45,500.288,0.4179721690000001,-0.335491925,-0.53208923,0.17580721800000002,-0.194765618,0.5181717020000001,-0.22349337,-0.16105405099999998,-0.287969182,-0.19767126000000002,-0.0652288455,-0.121010485,,217.84848484848484,1,L03_NIRS-2019-08-17_007_trial05.txt,67.0
46,501.56800000000004,0.465071309,-0.29388476900000005,-0.562560027,0.12029526239999999,-0.182213177,0.533929039,-0.195909655,-0.15335893100000003,-0.300661115,-0.212567503,-0.0645307872,-0.12335531500000001,,217.84848484848484,1,L03_NIRS-2019-08-17_007_trial05.txt,67.0
47,502.84799999999996,0.539297322,-0.25462310400000004,-0.561826973,0.05051286939999999,-0.20285024899999998,0.533101302,-0.154097186,-0.137864757,-0.303090419,-0.22898630100000003,-0.0602031196,-0.120178873,,217.84848484848484,1,L03_NIRS-2019-08-17_007_trial05.txt,67.0
48,504.128,0.573624637,-0.282468887,-0.6018292860000001,-0.03709497555,-0.271327669,0.48128287700000005,-0.11554468500000001,-0.12356363,-0.29903639800000004,-0.23832164500000003,-0.051106178599999996,-0.115143848,,217.84848484848484,1,L03_NIRS-2019-08-17_007_trial05.txt,67.0
49,505.4080000000001,0.529095799,-0.3668158409999999,-0.7010117969999999,-0.12599023959999997,-0.371085261,0.39280561199999997,-0.09981551930000002,-0.114556254,-0.296681219,-0.241213383,-0.0409443885,-0.10807460499999996,,217.84848484848484,1,L03_NIRS-2019-08-17_007_trial05.txt,67.0
50,506.688,0.40999998699999995,-0.474851875,-0.8241342810000001,-0.21724322899999998,-0.469256158,0.27959136,-0.113551353,-0.119639939,-0.300131468,-0.23669821,-0.0340709218,-0.10814670900000001,,217.84848484848484,1,L03_NIRS-2019-08-17_007_trial05.txt,67.0
51,507.96799999999996,0.31855197599999996,-0.5084629949999998,-0.899316739,-0.232055503,-0.481908199,0.23716922399999998,-0.140979601,-0.13316435399999998,-0.32579282800000003,-0.22955646200000004,-0.029284441699999997,-0.1111254894,,217.84848484848484,1,L03_NIRS-2019-08-17_007_trial05.txt,67.0
52,509.05600000000004,0.3934264885714286,-0.30068551714285713,-0.6809061514285715,-0.05144848328571429,-0.30155504285714285,0.47387946857142854,-0.14966232428571427,-0.09888022485714285,-0.30066665,-0.19394216142857143,0.009119539642857142,-0.06223852057142858,,217.84848484848484,1,L03_NIRS-2019-08-17_007_trial05.txt,67.0
