,time,S3_D4_HbO,S3_D3_HbO,S2_D3_HbO,S2_D2_HbO,S1_D2_HbO,S1_D1_HbO,S3_D4_HbR,S3_D3_HbR,S2_D3_HbR,S2_D2_HbR,S1_D2_HbR,S1_D1_HbR,Var14,score,labelnum,filename,total_time
0,1027.648,0.8028514299999999,-0.040014173248,-0.274338523,-0.18932699379999998,0.348290262,0.36338745199999994,-0.869507874,-0.198921188,0.214915523,-0.288993272,-0.25897118199999997,-0.198408474,,169.57575757575756,1,L06_NIRS-2019-08-20_008_trial10.txt,88.0
1,1028.9280000000003,0.882112201,0.11913779990000002,-0.0876552075,0.0658204362,0.472001095,0.410909763,-0.84004239,-0.193095043,0.21536751799999995,-0.21818033200000003,-0.254161518,-0.205290434,,169.57575757575756,1,L06_NIRS-2019-08-20_008_trial10.txt,88.0
2,1030.208,0.972306944,0.31969352999999995,0.15466699690000002,0.283807805,0.604406498,0.47048797899999995,-0.785681074,-0.15174400600000001,0.22077531,-0.20564227599999998,-0.26937485399999994,-0.230532606,,169.57575757575756,1,L06_NIRS-2019-08-20_008_trial10.txt,88.0
3,1031.488,1.0908714099999999,0.424557194,0.364507176,0.342965332,0.6452784649999999,0.49914359500000005,-0.875831761,-0.134012496,0.16886744099999998,-0.24852919800000003,-0.308592874,-0.268179123,,169.57575757575756,1,L06_NIRS-2019-08-20_008_trial10.txt,88.0
4,1032.768,1.0330720369999997,0.36352123000000003,0.43610367299999997,0.30029289100000006,0.60807718,0.561642724,-0.7879733889999999,-0.13563930600000002,0.11829067950000001,-0.25339932500000006,-0.319810918,-0.26194178,,169.57575757575756,1,L06_NIRS-2019-08-20_008_trial10.txt,88.0
5,1034.048,0.9821397909999998,0.24917356599999999,0.37525622300000006,0.204928686,0.527917638,0.611723148,-0.7827300549999999,-0.195296772,0.0953467526,-0.20554127799999997,-0.303252414,-0.22488722600000002,,169.57575757575756,1,L06_NIRS-2019-08-20_008_trial10.txt,88.0
6,1035.328,0.8014927139999999,0.08773019273999999,0.20998750589999998,0.03814744413999999,0.397771281,0.5634121750000001,-0.7121105940000001,-0.232411815,0.1090837915,-0.140176469,-0.27620733399999997,-0.180992849,,169.57575757575756,1,L06_NIRS-2019-08-20_008_trial10.txt,88.0
7,1036.608,0.599614243,-0.08781425810000001,-0.016282009620000003,-0.0880934047,0.28831096199999995,0.49498636299999993,-0.689888937,-0.21096795699999998,0.15588449,-0.02996778404,-0.23205415299999999,-0.12578582619999998,,169.57575757575756,1,L06_NIRS-2019-08-20_008_trial10.txt,88.0
8,1037.888,0.49851205400000004,-0.0922919016,-0.07018258250000001,-0.0057404533319999965,0.332121145,0.578323553,-0.626805344,-0.20458485899999998,0.191863799,0.10551413940000001,-0.183482227,-0.0626992278,,169.57575757575756,1,L06_NIRS-2019-08-20_008_trial10.txt,88.0
9,1039.1680000000001,0.5617032,0.097571362431,0.08480079146000001,0.20574750600000002,0.49492400100000006,0.7096279240000001,-0.620363849,-0.17700460299999998,0.21373044800000002,0.142092506,-0.177078617,-0.0521762434,,169.57575757575756,1,L06_NIRS-2019-08-20_008_trial10.txt,88.0
10,1040.448,0.632637114,0.350203576,0.36184696499999996,0.45621376300000005,0.6793495479999999,0.833572552,-0.574668212,-0.142108658,0.171799397,0.08474284350000001,-0.213623845,-0.0892040716,,169.57575757575756,1,L06_NIRS-2019-08-20_008_trial10.txt,88.0
11,1041.728,0.819609582,0.584076498,0.609190793,0.698379457,0.831055346,0.9626120650000001,-0.667996723,-0.132530838,0.1067159907,0.012528491769999997,-0.25598218399999995,-0.125732784,,169.57575757575756,1,L06_NIRS-2019-08-20_008_trial10.txt,88.0
12,1043.0080000000003,0.8992088059999999,0.6879287390000001,0.641794455,0.7646421940000001,0.8350425110000002,0.967406452,-0.7963651820000001,-0.181158435,0.0679363419,-0.046709410800000004,-0.292196221,-0.15842863000000001,,169.57575757575756,1,L06_NIRS-2019-08-20_008_trial10.txt,88.0
13,1044.288,0.8598394460000002,0.5714068609999999,0.4131450419999999,0.5627359620000001,0.64989582,0.7947600309999999,-0.9949077260000001,-0.214607656,0.0748537147,-0.0621793037,-0.30143985300000004,-0.175822981,,169.57575757575756,1,L06_NIRS-2019-08-20_008_trial10.txt,88.0
14,1045.568,0.6648989390000001,0.35940373800000003,0.1002341734,0.270436389,0.42918475999999994,0.587137695,-1.08539734,-0.20010543499999994,0.127874824,-0.015511162499999998,-0.28315365200000003,-0.176312024,,169.57575757575756,1,L06_NIRS-2019-08-20_008_trial10.txt,88.0
15,1046.848,0.5346677769999999,0.253462733,-0.0437391834,0.12928504899999999,0.332389465,0.515282773,-1.1407180399999999,-0.17817447899999997,0.192712027,0.0658449502,-0.253746403,-0.16478184899999998,,169.57575757575756,1,L06_NIRS-2019-08-20_008_trial10.txt,88.0
16,1048.1280000000002,0.452563307,0.27514106099999996,0.02541383472,0.163589069,0.3731427719999999,0.5442387949999999,-1.1231851499999999,-0.1244278987,0.23192842800000002,0.121134341,-0.23623616200000003,-0.16490339,,169.57575757575756,1,L06_NIRS-2019-08-20_008_trial10.txt,88.0
17,1049.408,0.412555745,0.356611493,0.20912911699999998,0.29172730399999997,0.479003674,0.6160184559999999,-1.05635921,-0.05788213800000001,0.225420899,0.14063819299999997,-0.23132733700000002,-0.171421548,,169.57575757575756,1,L06_NIRS-2019-08-20_008_trial10.txt,88.0
18,1050.688,0.456847155,0.4539477229999999,0.37695532400000004,0.42028822200000004,0.5863959049999999,0.678621783,-1.0417479799999998,-0.009892064609,0.18453340399999998,0.135570111,-0.23552745400000002,-0.18286420599999997,,169.57575757575756,1,L06_NIRS-2019-08-20_008_trial10.txt,88.0
19,1051.9679999999998,0.5775698850000001,0.49462105100000003,0.41528214399999996,0.47582007800000004,0.6345687579999999,0.698430162,-1.11132068,-0.011572385721,0.15649410299999997,0.127026395,-0.23624314899999996,-0.192628092,,169.57575757575756,1,L06_NIRS-2019-08-20_008_trial10.txt,88.0
20,1053.248,0.583481089,0.45556686299999993,0.32488814699999996,0.40989502599999994,0.596098312,0.6414928,-1.13067043,-0.05004462860000001,0.132942229,0.12101086700000001,-0.22602286900000004,-0.197653232,,169.57575757575756,1,L06_NIRS-2019-08-20_008_trial10.txt,88.0
21,1054.528,0.526669103,0.393706569,0.237155959,0.378185472,0.570369426,0.6306851860000001,-1.0399994300000002,-0.07499776970000001,0.10843307230000002,0.14667124999999998,-0.207106575,-0.186343181,,169.57575757575756,1,L06_NIRS-2019-08-20_008_trial10.txt,88.0
22,1055.808,0.517029438,0.35159303799999997,0.231373301,0.410518699,0.571164482,0.6688796119999999,-1.04807333,-0.0536741677,0.10317885019999999,0.183239402,-0.18761297,-0.172364682,,169.57575757575756,1,L06_NIRS-2019-08-20_008_trial10.txt,88.0
23,1057.0880000000002,0.46542375699999994,0.33747891399999996,0.25004747699999996,0.4532040920000001,0.5693588359999999,0.6849275930000001,-1.021204711,-0.013310999634999997,0.136650473,0.21151452400000004,-0.170024537,-0.169933489,,169.57575757575756,1,L06_NIRS-2019-08-20_008_trial10.txt,88.0
24,1058.368,0.34631184400000004,0.320174744,0.263530088,0.45663187799999994,0.536898153,0.6731692690000001,-0.9636570459999998,0.001154275186,0.17240774900000003,0.23126319199999998,-0.15446319400000003,-0.167246206,,169.57575757575756,1,L06_NIRS-2019-08-20_008_trial10.txt,88.0
25,1059.648,0.29599993799999996,0.264588121,0.21936846100000001,0.39421953,0.465262854,0.630535465,-1.02041606,0.012885958659999999,0.191816032,0.249356462,-0.137580859,-0.156642517,,169.57575757575756,1,L06_NIRS-2019-08-20_008_trial10.txt,88.0
26,1060.9280000000003,0.283013455,0.202560916,0.180779707,0.33634193600000006,0.413825269,0.6126520769999999,-1.0579919050000002,0.02628281182,0.19880946100000002,0.27052523500000003,-0.116818775,-0.141910112,,169.57575757575756,1,L06_NIRS-2019-08-20_008_trial10.txt,88.0
27,1062.208,0.21698532299999998,0.153875301,0.179012708,0.316971108,0.398682013,0.633995487,-0.996411885,0.011394988219999999,0.20063313199999996,0.2873575629999999,-0.0958866151,-0.12149718399999998,,169.57575757575756,1,L06_NIRS-2019-08-20_008_trial10.txt,88.0
28,1063.488,0.20322823999999998,0.1521438,0.25722339799999994,0.40615332700000006,0.46443541899999996,0.724785948,-0.866479895,-0.0037121955909999995,0.162243452,0.299140258,-0.08192136759999999,-0.09844299879999999,,169.57575757575756,1,L06_NIRS-2019-08-20_008_trial10.txt,88.0
29,1064.768,0.182814598,0.167025155,0.348256276,0.537617368,0.552486868,0.8037380159999999,-0.732530133,0.0023558918100000004,0.139632976,0.297650445,-0.0807002423,-0.0884820586,,169.57575757575756,1,L06_NIRS-2019-08-20_008_trial10.txt,88.0
30,1066.048,0.1235872177,0.167216627,0.375281409,0.619106205,0.5990927810000001,0.786564016,-0.627907757,0.014262240939000002,0.13904325199999998,0.273664797,-0.08906852850000001,-0.09684365430000001,,169.57575757575756,1,L06_NIRS-2019-08-20_008_trial10.txt,88.0
31,1067.328,-0.01569854752,0.175074113,0.32676001,0.6337146230000001,0.597287673,0.735484866,-0.507025859,-0.03229811643000001,0.160377756,0.24348601100000003,-0.1017265603,-0.10025417669999999,,169.57575757575756,1,L06_NIRS-2019-08-20_008_trial10.txt,88.0
32,1068.608,0.0622421004,0.17392450799999998,0.23882676899999997,0.625952326,0.586536857,0.6927887540000002,-0.623775501,-0.06122423719999999,0.20261318199999998,0.214858912,-0.11450336000000001,-0.09411433129999999,,169.57575757575756,1,L06_NIRS-2019-08-20_008_trial10.txt,88.0
33,1069.888,0.15646468079999998,0.208666558,0.255389443,0.676491846,0.6271281419999999,0.715949111,-0.7320328,-0.06725130439999999,0.18745336899999998,0.192710616,-0.127688999,-0.0866032162,,169.57575757575756,1,L06_NIRS-2019-08-20_008_trial10.txt,88.0
34,1071.1680000000001,0.42111495000000004,0.23007398399999998,0.33521187799999996,0.7603498460000001,0.685546259,0.7541670330000001,-1.0412009640000002,-0.0527503206,0.135832409,0.164987454,-0.141243146,-0.0843143094,,169.57575757575756,1,L06_NIRS-2019-08-20_008_trial10.txt,88.0
35,1072.448,0.5153010050000001,0.278342388,0.416127891,0.8579571509999999,0.742304354,0.788075651,-1.1926380100000002,-0.061312705300000006,0.09115564540000001,0.14220725299999998,-0.150157085,-0.0821791957,,169.57575757575756,1,L06_NIRS-2019-08-20_008_trial10.txt,88.0
36,1073.728,0.409942516,0.30519995,0.442560529,0.8961367599999999,0.740558898,0.773392202,-1.16345462,-0.09642259839999998,0.052170285799999994,0.127191288,-0.154973811,-0.0736670457,,169.57575757575756,1,L06_NIRS-2019-08-20_008_trial10.txt,88.0
37,1075.0080000000003,0.229393923,0.307790132,0.454874946,0.890482729,0.7063383310000001,0.734478325,-1.057740879,-0.12890727000000002,-0.024837040790000004,0.117950987,-0.15391714299999998,-0.0584314639,,169.57575757575756,1,L06_NIRS-2019-08-20_008_trial10.txt,88.0
38,1076.288,0.07853735273,0.336028036,0.475005389,0.91742487,0.7031485590000001,0.7593685709999999,-0.9001959390000002,-0.157723873,-0.07414168,0.10525113949999998,-0.159652868,-0.04421501769999999,,169.57575757575756,1,L06_NIRS-2019-08-20_008_trial10.txt,88.0
39,1077.568,0.05004163362999999,0.391549111,0.552810459,0.997757039,0.749706296,0.8218190250000001,-0.745356634,-0.134062264,-0.0988897769,0.06229598730000001,-0.179920253,-0.04986246279999999,,169.57575757575756,1,L06_NIRS-2019-08-20_008_trial10.txt,88.0
40,1078.848,0.12226584259999998,0.471427642,0.6828991849999999,1.13114552,0.8348633980000001,0.8958252769999999,-0.733985076,-0.11352749799999999,-0.1095329459,0.006862224870000001,-0.20722846500000003,-0.07616062750000001,,169.57575757575756,1,L06_NIRS-2019-08-20_008_trial10.txt,88.0
41,1080.1280000000002,0.190578374,0.483813502,0.7635325989999999,1.21029032,0.8680147810000001,0.8958071710000001,-0.851842266,-0.0920006146,-0.122579328,-0.03499626520000001,-0.22508492800000002,-0.1065691978,,169.57575757575756,1,L06_NIRS-2019-08-20_008_trial10.txt,88.0
42,1081.408,0.0758098951,0.418471787,0.7468526210000002,1.1957263900000001,0.830988717,0.820417213,-0.824813338,-0.06926901170000001,-0.116866647,-0.0420335833,-0.22516868600000003,-0.123599886,,169.57575757575756,1,L06_NIRS-2019-08-20_008_trial10.txt,88.0
43,1082.688,0.03878987611999999,0.28444741999999995,0.640824961,1.08596247,0.7252884799999999,0.721867185,-0.93450773,-0.0786457367,-0.0900420719,-0.010526068159,-0.210346059,-0.115077111,,169.57575757575756,1,L06_NIRS-2019-08-20_008_trial10.txt,88.0
44,1083.9679999999998,-0.011578618700000001,0.173286784,0.536504568,0.9745581549999999,0.629023009,0.6762331130000001,-1.0375579799999999,-0.10233630409999998,-0.0642783597,0.0457112547,-0.185980045,-0.09102143610000002,,169.57575757575756,1,L06_NIRS-2019-08-20_008_trial10.txt,88.0
45,1085.248,0.0519735701,0.12730857,0.534418783,0.9444771489999999,0.604268071,0.732900271,-1.0806634549999998,-0.09815822960000001,-0.04567481389999999,0.0929006304,-0.17141145200000002,-0.07437817290000001,,169.57575757575756,1,L06_NIRS-2019-08-20_008_trial10.txt,88.0
46,1086.528,0.1900674874,0.21137942300000004,0.6717505050000001,1.03097745,0.6782215070000001,0.868968669,-0.936645654,-0.0628124608,-0.040417009,0.10304823280000001,-0.17984478899999998,-0.0868154465,,169.57575757575756,1,L06_NIRS-2019-08-20_008_trial10.txt,88.0
47,1087.808,0.47016759399999997,0.43398868999999995,0.9005377130000001,1.2285170300000001,0.8348682759999999,1.052560252,-0.914669495,-0.07675635830000002,-0.015466968752999999,0.08185183,-0.20906917199999997,-0.123200329,,169.57575757575756,1,L06_NIRS-2019-08-20_008_trial10.txt,88.0
48,1089.0880000000002,0.6860030509999999,0.663241073,1.14339519,1.4437628999999998,0.9977059909999999,1.19483757,-0.9825452709999999,-0.09599189729999999,-0.0376239983,0.037452927999999996,-0.24742271200000002,-0.16627301600000002,,169.57575757575756,1,L06_NIRS-2019-08-20_008_trial10.txt,88.0
49,1090.368,0.6810795789999999,0.784088674,1.27838348,1.56911641,1.09890279,1.2361364,-0.89370355,-0.10615429200000001,-0.10334796770000002,-0.01061148905,-0.285647246,-0.19921499399999998,,169.57575757575756,1,L06_NIRS-2019-08-20_008_trial10.txt,88.0
50,1091.648,0.579888924,0.76057378,1.2195811099999998,1.56620855,1.11708532,1.18792308,-0.8474719870000001,-0.124202247,-0.13624850500000002,-0.03380155780000001,-0.31343005799999996,-0.212654451,,169.57575757575756,1,L06_NIRS-2019-08-20_008_trial10.txt,88.0
51,1092.9280000000003,0.368661558,0.685808102,1.055641961,1.49287428,1.09280907,1.11495393,-0.8714169820000002,-0.150694188,-0.14303886300000002,-0.039301825400000004,-0.332959976,-0.21369148899999998,,169.57575757575756,1,L06_NIRS-2019-08-20_008_trial10.txt,88.0
52,1094.208,0.288587883,0.612956136,0.9246503519999999,1.42408232,1.07172791,1.0640975,-0.9374466770000002,-0.15555238700000001,-0.159606449,-0.040534145199999996,-0.350008841,-0.217278764,,169.57575757575756,1,L06_NIRS-2019-08-20_008_trial10.txt,88.0
53,1095.488,0.44363883,0.622071662,0.9234436419999998,1.43292465,1.0954102300000002,1.08125462,-1.0998466800000002,-0.15114141900000003,-0.18356898500000002,-0.052200200399999994,-0.375262684,-0.23716822899999998,,169.57575757575756,1,L06_NIRS-2019-08-20_008_trial10.txt,88.0
54,1096.768,0.694375961,0.730081552,1.035762965,1.5122059499999998,1.14008132,1.1608210700000001,-1.27460732,-0.18463548100000002,-0.197205627,-0.06827376230000001,-0.40175881599999996,-0.266646417,,169.57575757575756,1,L06_NIRS-2019-08-20_008_trial10.txt,88.0
55,1098.048,0.9163180999999998,0.8624500319999999,1.19012868,1.61486077,1.1837567199999999,1.26269376,-1.40549875,-0.19718607000000002,-0.199209423,-0.086888619,-0.418101636,-0.295915439,,169.57575757575756,1,L06_NIRS-2019-08-20_008_trial10.txt,88.0
56,1099.328,0.9822505640000001,0.9155787569999998,1.30731613,1.6657366999999996,1.18886598,1.3392179299999998,-1.32960971,-0.170424063,-0.20385228500000002,-0.0834221029,-0.420383912,-0.31265753700000004,,169.57575757575756,1,L06_NIRS-2019-08-20_008_trial10.txt,88.0
57,1100.608,0.994315314,0.9064475670000001,1.31659426,1.6698819099999997,1.1748020399999999,1.3928065799999998,-1.19741187,-0.12343656199999997,-0.16025757599999998,-0.0422077022,-0.40537913999999986,-0.316230483,,169.57575757575756,1,L06_NIRS-2019-08-20_008_trial10.txt,88.0
58,1101.888,0.8757784279999999,0.8684051979999999,1.28936937,1.65014975,1.1648617099999998,1.40884336,-1.037780868,-0.0720138382,-0.14679874499999998,0.00817790328,-0.38952427599999995,-0.32154709800000003,,169.57575757575756,1,L06_NIRS-2019-08-20_008_trial10.txt,88.0
59,1103.1680000000001,0.8516945150000002,0.849197002,1.2479973100000001,1.6514952099999998,1.17959237,1.4000724500000001,-1.0171572279999999,-0.05146719190000001,-0.15081990799999997,0.05080060529999999,-0.382019779,-0.330173731,,169.57575757575756,1,L06_NIRS-2019-08-20_008_trial10.txt,88.0
60,1104.448,0.8297646750000001,0.846162133,1.21753991,1.6651537400000003,1.20369572,1.36732236,-1.0471381979999999,-0.04533109219999999,-0.154584668,0.06680838030000001,-0.391365006,-0.346570584,,169.57575757575756,1,L06_NIRS-2019-08-20_008_trial10.txt,88.0
61,1105.728,0.8313665,0.8668874650000001,1.15826313,1.6469579399999996,1.1943624,1.3131043299999998,-1.15345449,-0.09386094240000001,-0.157588814,0.0779128932,-0.400992408,-0.3602776790000001,,169.57575757575756,1,L06_NIRS-2019-08-20_008_trial10.txt,88.0
62,1107.0080000000003,0.701283046,0.9042392649999998,1.07630275,1.59125562,1.18378108,1.26355109,-1.1270300700000002,-0.13192832999999998,-0.15711286100000002,0.08083043980000001,-0.41261517099999995,-0.37479457800000004,,169.57575757575756,1,L06_NIRS-2019-08-20_008_trial10.txt,88.0
63,1108.288,0.688476201,0.9377217739999999,0.995636592,1.51956875,1.17246636,1.22258239,-1.2064765400000002,-0.16596662700000003,-0.15801838299999998,0.08194653190000001,-0.431673886,-0.387918891,,169.57575757575756,1,L06_NIRS-2019-08-20_008_trial10.txt,88.0
64,1109.568,0.855063601,1.0085841329999998,0.9486310329999998,1.49199357,1.1844862699999998,1.2087300600000002,-1.4656602200000002,-0.20028130900000002,-0.155134726,0.0913626659,-0.455286144,-0.407639951,,169.57575757575756,1,L06_NIRS-2019-08-20_008_trial10.txt,88.0
65,1110.848,0.9244492560000002,1.04495502,0.9349432480000001,1.45420204,1.16358309,1.16532976,-1.62576396,-0.22450174499999997,-0.15735811300000002,0.0890565131,-0.48407608799999996,-0.435186651,,169.57575757575756,1,L06_NIRS-2019-08-20_008_trial10.txt,88.0
66,1112.1280000000002,0.919713016,1.06300398,0.9539163580000001,1.44600155,1.1329946199999998,1.15521501,-1.63822945,-0.259756423,-0.127066279,0.0997605895,-0.4943602429999999,-0.443410718,,169.57575757575756,1,L06_NIRS-2019-08-20_008_trial10.txt,88.0
67,1113.408,0.8753988209999999,1.0395828500000002,1.018327998,1.41655705,1.0795254499999998,1.17215992,-1.61314704,-0.256491295,-0.0825561987,0.10987776500000002,-0.48517633,-0.430527042,,169.57575757575756,1,L06_NIRS-2019-08-20_008_trial10.txt,88.0
68,1114.112,0.90071688,1.0232484,1.0498555,1.4153427,1.0515613,1.2137837,-1.6159847,-0.26485809,-0.037830577,0.13545932,-0.46620011,-0.40994964,,169.57575757575756,1,L06_NIRS-2019-08-20_008_trial10.txt,88.0
