,time,S3_D4_HbO,S3_D3_HbO,S2_D3_HbO,S2_D2_HbO,S1_D2_HbO,S1_D1_HbO,S3_D4_HbR,S3_D3_HbR,S2_D3_HbR,S2_D2_HbR,S1_D2_HbR,S1_D1_HbR,Var14,score,labelnum,filename,total_time
0,863.808,10.615589399999998,-1.73752781,-5.226550850000001,1.6863123300000002,-1.42794372,5.024429880000001,11.0515504,-0.348320196,1.36664739,-0.37242649899999997,1.9920511599999997,0.46995498699999994,,191.6969696969697,1,L06_NIRS-2019-08-17_005_trial08.txt,78.0
1,865.0880000000001,10.601206200000002,-1.76420116,-5.24489547,1.64195658,-1.44645078,4.99019316,11.087426099999998,-0.340667576,1.41479532,-0.346705034,2.0101982299999994,0.48852168900000004,,191.6969696969697,1,L06_NIRS-2019-08-17_005_trial08.txt,78.0
2,866.368,10.7686508,-1.6071344500000002,-5.083823670000001,1.7029585499999995,-1.40242373,5.03856009,11.094662799999998,-0.31834260999999997,1.4371279399999999,-0.340764343,2.0191924000000006,0.5101900130000001,,191.6969696969697,1,L06_NIRS-2019-08-17_005_trial08.txt,78.0
3,867.6480000000001,11.010628,-1.37037679,-4.825820820000001,1.80833486,-1.31303804,5.120953399999999,11.068706899999999,-0.29729186799999996,1.4373950899999999,-0.351170552,2.01846005,0.526109943,,191.6969696969697,1,L06_NIRS-2019-08-17_005_trial08.txt,78.0
4,868.9280000000001,11.181829500000001,-1.20032932,-4.63277885,1.8969809899999999,-1.21969342,5.20070831,11.024407,-0.29209567599999997,1.4197837399999997,-0.37651203899999997,2.00666059,0.5325418690000001,,191.6969696969697,1,L06_NIRS-2019-08-17_005_trial08.txt,78.0
5,870.208,11.1991762,-1.1680939799999999,-4.606509689999999,1.93825435,-1.1604879699999997,5.2405551400000006,10.989028099999997,-0.307354654,1.3993665299999998,-0.404749718,1.99266869,0.5337390719999999,,191.6969696969697,1,L06_NIRS-2019-08-17_005_trial08.txt,78.0
6,871.4879999999999,11.176519200000001,-1.2548435699999998,-4.64079126,1.99725091,-1.0994070399999998,5.28810226,10.9777222,-0.327595408,1.3882620500000002,-0.42337443399999997,1.9795644200000002,0.538259695,,191.6969696969697,1,L06_NIRS-2019-08-17_005_trial08.txt,78.0
7,872.768,11.2302146,-1.32935306,-4.594403219999999,2.10001704,-1.0128018739999998,5.353429520000001,10.980241000000001,-0.335559393,1.38872916,-0.429580863,1.9705714300000001,0.544540894,,191.6969696969697,1,L06_NIRS-2019-08-17_005_trial08.txt,78.0
8,874.0480000000001,11.3833616,-1.32807604,-4.430855920000001,2.2383926599999997,-0.9059340889999999,5.438906299999999,10.9827248,-0.33046884299999996,1.3905435700000002,-0.43278940400000004,1.9673315599999999,0.5487794669999999,,191.6969696969697,1,L06_NIRS-2019-08-17_005_trial08.txt,78.0
9,875.3279999999999,11.5425467,-1.3022953000000002,-4.24508485,2.33527695,-0.826545801,5.506101920000001,10.971077900000001,-0.324275463,1.3851883700000003,-0.43535589100000005,1.9717839899999998,0.547919772,,191.6969696969697,1,L06_NIRS-2019-08-17_005_trial08.txt,78.0
10,876.608,11.6048378,-1.34204047,-4.163132970000001,2.34767376,-0.8066835520000002,5.5220535,10.948914199999999,-0.33288683899999993,1.3677216399999998,-0.43476253800000003,1.9814353699999998,0.5446598930000001,,191.6969696969697,1,L06_NIRS-2019-08-17_005_trial08.txt,78.0
11,877.8879999999999,11.5227912,-1.4829526000000002,-4.2446648499999995,2.2836729599999996,-0.8563857449999999,5.4684886,10.930534900000001,-0.36048216800000005,1.33983336,-0.427307511,1.99355109,0.536715587,,191.6969696969697,1,L06_NIRS-2019-08-17_005_trial08.txt,78.0
12,879.168,11.3975215,-1.61159283,-4.3866951499999995,2.24778351,-0.9085085150000001,5.40654635,10.9434469,-0.389040709,1.3178102800000002,-0.41528627700000004,2.0068901,0.5312745889999999,,191.6969696969697,1,L06_NIRS-2019-08-17_005_trial08.txt,78.0
13,880.448,11.395288899999999,-1.6359076899999998,-4.421746369999999,2.3213730999999997,-0.8796760349999999,5.419700569999999,10.974627100000001,-0.4001778180000001,1.30423692,-0.4042770030000001,2.01160688,0.530670777,,191.6969696969697,1,L06_NIRS-2019-08-17_005_trial08.txt,78.0
14,881.7280000000001,11.538747500000001,-1.52243157,-4.311582690000001,2.4601218,-0.78069882,5.48663649,10.9951882,-0.394197504,1.28751535,-0.408780786,2.0028732399999996,0.5273683480000001,,191.6969696969697,1,L06_NIRS-2019-08-17_005_trial08.txt,78.0
15,883.0080000000002,11.689621200000001,-1.3833566900000003,-4.19351567,2.54609056,-0.698166001,5.53078564,10.989931899999998,-0.39012930300000004,1.25865167,-0.431360847,1.98417898,0.515389811,,191.6969696969697,1,L06_NIRS-2019-08-17_005_trial08.txt,78.0
16,884.2880000000001,11.719528,-1.3609402400000001,-4.21130752,2.50526562,-0.6989341710000001,5.5078581799999995,10.965495899999999,-0.403606307,1.22829287,-0.459847452,1.96565994,0.494724613,,191.6969696969697,1,L06_NIRS-2019-08-17_005_trial08.txt,78.0
17,885.5679999999999,11.639996799999999,-1.4636675,-4.35972124,2.39589492,-0.7599502009999999,5.4436176,10.9280685,-0.43544048799999996,1.20314188,-0.47844616100000004,1.94925448,0.4762379160000001,,191.6969696969697,1,L06_NIRS-2019-08-17_005_trial08.txt,78.0
18,886.848,11.5270646,-1.6088026100000001,-4.53086393,2.29321076,-0.838131746,5.365549409999999,10.8863258,-0.4739907849999999,1.1785955,-0.48558462999999996,1.93547579,0.459061307,,191.6969696969697,1,L06_NIRS-2019-08-17_005_trial08.txt,78.0
19,888.128,11.481749,-1.67180429,-4.603091539999999,2.25550084,-0.876373747,5.324009389999999,10.8542972,-0.49694312100000004,1.16372613,-0.48634107899999995,1.9266906599999998,0.448590305,,191.6969696969697,1,L06_NIRS-2019-08-17_005_trial08.txt,78.0
20,889.408,11.513009700000001,-1.63162756,-4.58575383,2.2542201299999998,-0.8690487890000002,5.329862449999999,10.8375241,-0.497197679,1.1665448600000001,-0.477882853,1.9240722400000003,0.442280052,,191.6969696969697,1,L06_NIRS-2019-08-17_005_trial08.txt,78.0
21,890.6879999999999,11.5588847,-1.56891888,-4.579177629999999,2.23789499,-0.8497175220000001,5.351772540000001,10.833690400000002,-0.48827330699999993,1.1800089800000002,-0.46024933000000007,1.92593569,0.439389872,,191.6969696969697,1,L06_NIRS-2019-08-17_005_trial08.txt,78.0
22,891.9680000000001,11.5120809,-1.60422616,-4.69591739,2.1591389400000005,-0.8780186780000001,5.32230225,10.8289535,-0.4932370220000001,1.1822847,-0.44288533500000005,1.9267697300000002,0.435152144,,191.6969696969697,1,L06_NIRS-2019-08-17_005_trial08.txt,78.0
23,893.2479999999999,11.390974199999999,-1.7295498299999998,-4.885900019999999,2.06846904,-0.936846615,5.263229539999999,10.830355599999999,-0.5111298419999999,1.1767821,-0.428669092,1.92994389,0.428389859,,191.6969696969697,1,L06_NIRS-2019-08-17_005_trial08.txt,78.0
24,894.5279999999999,11.3101896,-1.8280695999999999,-5.013767580000001,2.02774928,-0.9780750079999997,5.223677550000001,10.831473599999999,-0.528188515,1.1715138299999999,-0.4139523990000001,1.9339860400000002,0.418012712,,191.6969696969697,1,L06_NIRS-2019-08-17_005_trial08.txt,78.0
25,895.808,11.3407271,-1.8060552600000002,-4.98801527,2.05407719,-0.9662716299999999,5.23011582,10.8281304,-0.533536269,1.16691529,-0.4031955829999999,1.9370142399999999,0.409272948,,191.6969696969697,1,L06_NIRS-2019-08-17_005_trial08.txt,78.0
26,897.0880000000001,11.457212100000003,-1.67991712,-4.85069778,2.08556849,-0.9255117259999999,5.2663806,10.8140704,-0.528661547,1.15937793,-0.40038358899999993,1.93782861,0.40096377999999994,,191.6969696969697,1,L06_NIRS-2019-08-17_005_trial08.txt,78.0
27,898.368,11.593372800000001,-1.53591164,-4.706698949999999,2.08676571,-0.8794411030000001,5.32568532,10.793821500000002,-0.5231212490000001,1.1490555199999999,-0.4037052340000001,1.9353124800000003,0.390491396,,191.6969696969697,1,L06_NIRS-2019-08-17_005_trial08.txt,78.0
28,899.6480000000001,11.696395200000001,-1.4599317900000002,-4.6389159200000005,2.0709527700000003,-0.83832985,5.388671500000001,10.764063,-0.527768672,1.1355147399999999,-0.4076232409999999,1.9282466399999998,0.378375143,,191.6969696969697,1,L06_NIRS-2019-08-17_005_trial08.txt,78.0
29,900.9280000000001,11.720200299999998,-1.49306515,-4.67226104,2.05667597,-0.8166956969999999,5.422892299999999,10.7200712,-0.5500790919999999,1.1056987299999999,-0.421106084,1.91062826,0.364914043,,191.6969696969697,1,L06_NIRS-2019-08-17_005_trial08.txt,78.0
30,902.208,11.7052773,-1.5650964000000003,-4.71797406,2.0725028199999995,-0.800766418,5.4402519300000005,10.6772301,-0.576242856,1.0676107899999998,-0.44311446099999996,1.88549127,0.351141249,,191.6969696969697,1,L06_NIRS-2019-08-17_005_trial08.txt,78.0
31,903.4879999999999,11.724961500000001,-1.58939859,-4.724061990000001,2.1019426500000002,-0.7857166440000001,5.4662697,10.6327445,-0.597761534,1.0153354320000003,-0.478431211,1.84243843,0.33349786000000003,,191.6969696969697,1,L06_NIRS-2019-08-17_005_trial08.txt,78.0
32,904.768,11.784320099999999,-1.5467957499999998,-4.693307720000001,2.11073242,-0.7714521339999999,5.50143497,10.582020799999999,-0.61504509,0.9454101109999999,-0.529054647,1.7810263800000001,0.31506918700000003,,191.6969696969697,1,L06_NIRS-2019-08-17_005_trial08.txt,78.0
33,906.0480000000001,11.8264906,-1.4998606,-4.698585629999999,2.0705928099999995,-0.780718292,5.530366020000001,10.5242283,-0.637943858,0.852156155,-0.589197504,1.7100974199999999,0.295985052,,191.6969696969697,1,L06_NIRS-2019-08-17_005_trial08.txt,78.0
34,907.3279999999999,11.819161499999998,-1.49862477,-4.79278249,1.99609302,-0.815055029,5.546071070000001,10.468125400000002,-0.670357281,0.743937622,-0.645449186,1.64461233,0.27850306,,191.6969696969697,1,L06_NIRS-2019-08-17_005_trial08.txt,78.0
35,908.608,11.7936057,-1.5355345799999998,-4.96292742,1.9330860099999998,-0.8528961919999999,5.55564642,10.424224200000001,-0.7044449220000001,0.6390782060000001,-0.68358052,1.5968855800000001,0.265798099,,191.6969696969697,1,L06_NIRS-2019-08-17_005_trial08.txt,78.0
36,909.8879999999999,11.7937742,-1.5620427100000003,-5.1285941600000005,1.9142864400000001,-0.864956236,5.579035629999999,10.399103300000002,-0.7273638659999999,0.5577200289999998,-0.7015495460000001,1.56990139,0.258189052,,191.6969696969697,1,L06_NIRS-2019-08-17_005_trial08.txt,78.0
37,911.168,11.8474656,-1.5208176199999999,-5.19068878,1.95057206,-0.8280175700000001,5.634102029999999,10.396885200000002,-0.72926639,0.5148602980000001,-0.704660542,1.5592688799999999,0.254300189,,191.6969696969697,1,L06_NIRS-2019-08-17_005_trial08.txt,78.0
38,912.448,11.9621519,-1.3913917599999999,-5.104494990000001,2.03268495,-0.7533330810000001,5.708818599999999,10.4088566,-0.7127382949999999,0.5094783940000001,-0.706592314,1.55243481,0.25220455399999997,,191.6969696969697,1,L06_NIRS-2019-08-17_005_trial08.txt,78.0
39,913.7280000000001,12.163595199999998,-1.15816291,-4.85235472,2.16450201,-0.6487649719999999,5.8136143,10.429188,-0.6825867199999999,0.53768027,-0.7101106610000001,1.54966142,0.248779481,,191.6969696969697,1,L06_NIRS-2019-08-17_005_trial08.txt,78.0
40,915.0080000000002,12.4174622,-0.8628033550000002,-4.47809603,2.33873998,-0.539227066,5.930548160000001,10.444630300000002,-0.64924042,0.5921138189999999,-0.7123397650000001,1.5550079,0.244412837,,191.6969696969697,1,L06_NIRS-2019-08-17_005_trial08.txt,78.0
41,916.2880000000001,12.6946969,-0.546705544,-4.032436130000001,2.55578558,-0.432059116,6.04689591,10.4567174,-0.620485336,0.659486815,-0.7137015680000001,1.56750852,0.238670369,,191.6969696969697,1,L06_NIRS-2019-08-17_005_trial08.txt,78.0
42,917.568,12.9894721,-0.23001671710000005,-3.5603185600000002,2.81911618,-0.30854967199999994,6.184037739999999,10.464671200000002,-0.599680379,0.714120527,-0.719159949,1.57812454,0.23332990999999997,,191.6969696969697,1,L06_NIRS-2019-08-17_005_trial08.txt,78.0
43,918.848,13.256962099999999,0.037298890439999996,-3.1160572,3.08745107,-0.1653723624,6.3393280999999995,10.458634700000001,-0.592554673,0.733491342,-0.7366409469999999,1.5766163000000002,0.22635825,,191.6969696969697,1,L06_NIRS-2019-08-17_005_trial08.txt,78.0
44,920.128,13.4110537,0.181113229,-2.7591783800000003,3.3021798099999997,-0.017887943659999996,6.482724159999999,10.442891500000002,-0.603265131,0.7194053340000001,-0.7724237810000001,1.56378175,0.21789033500000002,,191.6969696969697,1,L06_NIRS-2019-08-17_005_trial08.txt,78.0
45,921.4080000000001,13.3466161,0.12727314950000002,-2.5820060899999997,3.3819351500000003,0.06090708570000001,6.523294420000001,10.4280607,-0.632350515,0.688513603,-0.8224233269999999,1.5515471500000002,0.20450202599999998,,191.6969696969697,1,L06_NIRS-2019-08-17_005_trial08.txt,78.0
46,922.6879999999999,13.128237500000001,-0.07095881358,-2.6008031099999998,3.3385959499999998,0.04741318109999999,6.46815357,10.4380189,-0.666068586,0.6675184849999999,-0.868151563,1.55260205,0.191608622,,191.6969696969697,1,L06_NIRS-2019-08-17_005_trial08.txt,78.0
47,923.9679999999998,12.861866599999999,-0.30935431500000005,-2.7455007399999998,3.21411691,-0.04249569997,6.348501649999999,10.4606299,-0.69053086,0.676770105,-0.8896698690000001,1.5714985899999998,0.18139884,,191.6969696969697,1,L06_NIRS-2019-08-17_005_trial08.txt,78.0
48,925.2480000000002,12.646475499999998,-0.508716759,-2.91200455,3.0782839,-0.16091342600000003,6.21514851,10.4846705,-0.7022603450000001,0.706219551,-0.889489727,1.60142457,0.175780405,,191.6969696969697,1,L06_NIRS-2019-08-17_005_trial08.txt,78.0
49,926.5279999999999,12.529782400000002,-0.637619402,-3.02637294,2.9731223899999994,-0.256411456,6.117684369999999,10.488647799999999,-0.7074494400000001,0.7307715910000001,-0.881630438,1.6281474900000004,0.175353289,,191.6969696969697,1,L06_NIRS-2019-08-17_005_trial08.txt,78.0
50,927.808,12.500749299999999,-0.726779873,-3.09367969,2.9139549399999995,-0.305722385,6.0789531000000006,10.459496,-0.7187340680000001,0.7264849090000001,-0.8805363889999999,1.64133265,0.17454454800000002,,191.6969696969697,1,L06_NIRS-2019-08-17_005_trial08.txt,78.0
51,929.0880000000001,12.5258565,-0.739312678,-3.10565275,2.91860621,-0.301584903,6.097156910000001,10.4045704,-0.729512258,0.701370936,-0.887423683,1.6429771800000001,0.17258837900000001,,191.6969696969697,1,L06_NIRS-2019-08-17_005_trial08.txt,78.0
52,930.368,12.6170248,-0.7813384859999999,-3.03463147,2.99027477,-0.26319948800000004,6.140835909999998,10.354709699999997,-0.7436686590000001,0.6783436220000001,-0.9026244459999999,1.6408193899999997,0.16281490799999998,,191.6969696969697,1,L06_NIRS-2019-08-17_005_trial08.txt,78.0
53,931.6480000000001,12.805737200000001,-0.8057908389999999,-2.8643252899999996,3.12076996,-0.19979758100000003,6.20582875,10.338212000000002,-0.750036438,0.682231414,-0.918935626,1.6393884099999998,0.14866900099999997,,191.6969696969697,1,L06_NIRS-2019-08-17_005_trial08.txt,78.0
54,932.9280000000001,13.084702100000001,-0.757524765,-2.6015741100000005,3.28929388,-0.12075329230000002,6.288280330000001,10.350483800000001,-0.744245819,0.7146645979999999,-0.925978113,1.6411887,0.136320184,,191.6969696969697,1,L06_NIRS-2019-08-17_005_trial08.txt,78.0
55,934.2079999999999,13.418198799999999,-0.64282935,-2.27501296,3.4685725499999998,-0.024951137349,6.39531542,10.3730401,-0.7341503389999999,0.7549231510000001,-0.9204117569999999,1.64726456,0.128667325,,191.6969696969697,1,L06_NIRS-2019-08-17_005_trial08.txt,78.0
56,935.488,13.7194301,-0.526320157,-1.95468763,3.60492822,0.06952099219999999,6.50110239,10.378079099999999,-0.7340579220000001,0.7792177089999999,-0.915028921,1.6523453499999998,0.12363616,,191.6969696969697,1,L06_NIRS-2019-08-17_005_trial08.txt,78.0
57,936.768,13.914966100000001,-0.458017026,-1.7233689199999997,3.69317936,0.16092302800000002,6.613832239999999,10.353017699999999,-0.7514889310000001,0.772326803,-0.916515313,1.6543587800000001,0.11766501199999999,,191.6969696969697,1,L06_NIRS-2019-08-17_005_trial08.txt,78.0
58,938.048,13.9763948,-0.410117112,-1.6199640600000003,3.75276836,0.261721063,6.736411309999999,10.2929168,-0.777224433,0.735186012,-0.924517829,1.64892793,0.10937366200000002,,191.6969696969697,1,L06_NIRS-2019-08-17_005_trial08.txt,78.0
59,939.3280000000001,13.949246300000002,-0.47092329599999994,-1.62382752,3.8048044600000006,0.36168996900000006,6.84657332,10.2117203,-0.809453974,0.688275419,-0.9363208069999999,1.6369320699999999,0.0970942919,,191.6969696969697,1,L06_NIRS-2019-08-17_005_trial08.txt,78.0
60,940.608,13.8031742,-0.6237808869999999,-1.71965632,3.8235705100000006,0.42866559400000004,6.90488211,10.2104717,-0.836468498,0.654457793,-0.945309642,1.6204696200000002,0.08388364040000001,,191.6969696969697,1,L06_NIRS-2019-08-17_005_trial08.txt,78.0
61,941.4399999999999,13.620088333333333,-0.7801140033333334,-1.8557189,3.778715533333333,0.41832365666666665,6.883384433333333,10.252106333333332,-0.8537588333333334,0.63354919,-0.9511156499999999,1.6073306,0.07497396466666667,,191.6969696969697,1,L06_NIRS-2019-08-17_005_trial08.txt,78.0
