,time,S3_D4_HbO,S3_D3_HbO,S2_D3_HbO,S2_D2_HbO,S1_D2_HbO,S1_D1_HbO,S3_D4_HbR,S3_D3_HbR,S2_D3_HbR,S2_D2_HbR,S1_D2_HbR,S1_D1_HbR,Var14,score,labelnum,filename,total_time
0,414.65599999999995,-1.43906483,-0.811783797,8.21238963,-1.0765147499999999,3.3853911400000003,-1.4618565499999998,0.0010672946399999995,-0.0680510383,0.6998276779999999,0.131079792,1.1230840299999998,-0.0778257918,,173.72727272727272,1,L06_NIRS-2019-08-15_003_trial04.txt,99.0
1,415.936,-1.3016030399999998,-0.710132855,8.406804769999999,-1.0408869800000002,3.55405568,-1.46355851,-0.029930131,-0.0395335455,0.708783232,0.171671658,1.15712207,-0.08650302619999999,,173.72727272727272,1,L06_NIRS-2019-08-15_003_trial04.txt,99.0
2,417.21600000000007,-1.19236509,-0.651461911,8.59148227,-0.9815191239999999,3.71960304,-1.42953486,-0.0622097923,-0.01429832711,0.729032235,0.211406429,1.17733703,-0.08924210639999999,,173.72727272727272,1,L06_NIRS-2019-08-15_003_trial04.txt,99.0
3,418.496,-1.10569497,-0.594223962,8.755734219999999,-0.9188982040000001,3.85649838,-1.35059494,-0.07937787199999999,0.014556074019999999,0.775255875,0.25129244900000003,1.1829330900000001,-0.07411381480000001,,173.72727272727272,1,L06_NIRS-2019-08-15_003_trial04.txt,99.0
4,419.776,-1.03029688,-0.5047626810000001,8.909196689999998,-0.87700572,3.9432786799999997,-1.26076531,-0.0858223844,0.041614448799999995,0.821159736,0.286292994,1.1790933799999999,-0.0453976546,,173.72727272727272,1,L06_NIRS-2019-08-15_003_trial04.txt,99.0
5,421.0559999999999,-1.00392931,-0.418351322,9.040837629999999,-0.8654366280000001,3.9824441,-1.23291657,-0.0733886241,0.0612218491,0.8537309649999999,0.313937464,1.1851694700000002,-0.02076927156,,173.72727272727272,1,L06_NIRS-2019-08-15_003_trial04.txt,99.0
6,422.33599999999996,-1.1076043,-0.425290013,9.081423050000001,-0.9182706470000002,3.9325672099999998,-1.26985376,-0.0411129951,0.06734654100000001,0.8783038880000001,0.344137953,1.20884319,0.004679492707000001,,173.72727272727272,1,L06_NIRS-2019-08-15_003_trial04.txt,99.0
7,423.616,-1.3167733399999997,-0.525977286,9.02131399,-1.0168934740000002,3.8279742999999997,-1.33702548,0.012852611089999999,0.06233781700000002,0.9081240769999999,0.385653509,1.25131382,0.0338074549,,173.72727272727272,1,L06_NIRS-2019-08-15_003_trial04.txt,99.0
8,424.896,-1.52901668,-0.641681028,8.95290203,-1.0876312000000001,3.7550505100000002,-1.3713323700000002,0.07538053759999999,0.0650532494,0.9621190470000001,0.438615565,1.3005382,0.06207574520000001,,173.72727272727272,1,L06_NIRS-2019-08-15_003_trial04.txt,99.0
9,426.17600000000004,-1.6280594499999999,-0.669247726,8.99872145,-1.05409591,3.79004435,-1.34048829,0.132268909,0.08567283620000002,1.04260871,0.4829137649999999,1.33771117,0.08703707999999999,,173.72727272727272,1,L06_NIRS-2019-08-15_003_trial04.txt,99.0
10,427.45599999999996,-1.59016169,-0.5863771539999999,9.175243409999998,-0.923462443,3.9198029599999997,-1.2677828100000001,0.164885907,0.118758429,1.13088101,0.507589041,1.3562737999999999,0.1022008046,,173.72727272727272,1,L06_NIRS-2019-08-15_003_trial04.txt,99.0
11,428.73600000000005,-1.4576488699999999,-0.4557127899999999,9.40692005,-0.754417996,4.0762474,-1.19198556,0.172261954,0.14594632,1.19593907,0.507424003,1.36035328,0.10635255000000002,,173.72727272727272,1,L06_NIRS-2019-08-15_003_trial04.txt,99.0
12,430.01599999999996,-1.3706470399999997,-0.41357722700000005,9.51003032,-0.6479605380000001,4.16112634,-1.1612727,0.17489073800000002,0.150162882,1.22719845,0.49568188299999993,1.3649103500000002,0.109655006,,173.72727272727272,1,L06_NIRS-2019-08-15_003_trial04.txt,99.0
13,431.296,-1.42275433,-0.5051486840000001,9.41708476,-0.664843885,4.12025691,-1.19453963,0.19423618800000003,0.13764551200000003,1.2394884000000002,0.4867494690000001,1.3828807300000001,0.118370092,,173.72727272727272,1,L06_NIRS-2019-08-15_003_trial04.txt,99.0
14,432.576,-1.5191810499999998,-0.6117416460000001,9.27560285,-0.7384081280000001,4.03013786,-1.22677941,0.22630219299999998,0.12820301699999997,1.26314316,0.502237943,1.41474915,0.13197303500000002,,173.72727272727272,1,L06_NIRS-2019-08-15_003_trial04.txt,99.0
15,433.85600000000005,-1.5264193899999998,-0.6346129309999999,9.256562650000001,-0.752727788,3.994569419999999,-1.22224994,0.258057251,0.13535879,1.30953443,0.534315389,1.44810877,0.143775122,,173.72727272727272,1,L06_NIRS-2019-08-15_003_trial04.txt,99.0
16,435.13599999999997,-1.44072006,-0.5498897349999999,9.394121929999999,-0.6585007139999999,4.0603881,-1.1724855699999999,0.279431049,0.15451832100000001,1.35556928,0.5512334749999999,1.4679984000000001,0.14756843700000002,,173.72727272727272,1,L06_NIRS-2019-08-15_003_trial04.txt,99.0
17,436.416,-1.3606432199999998,-0.44502328599999996,9.58082577,-0.5102570259999999,4.169599549999999,-1.13043128,0.29542840200000003,0.176790249,1.38574657,0.5398505570000001,1.4724931700000001,0.14393082699999998,,173.72727272727272,1,L06_NIRS-2019-08-15_003_trial04.txt,99.0
18,437.696,-1.30517153,-0.3912404480000001,9.69366291,-0.370171396,4.266755430000001,-1.1135881900000002,0.32426331199999997,0.187725575,1.38541657,0.505124272,1.4692689700000001,0.137206928,,173.72727272727272,1,L06_NIRS-2019-08-15_003_trial04.txt,99.0
19,438.97599999999994,-1.35095027,-0.4397722190000001,9.64648304,-0.325595705,4.28334383,-1.1348395,0.357922604,0.18180128699999998,1.36772515,0.468821442,1.4686503600000003,0.13612665699999998,,173.72727272727272,1,L06_NIRS-2019-08-15_003_trial04.txt,99.0
20,440.25600000000003,-1.4120982800000002,-0.5096937309999999,9.556870499999999,-0.33864124900000003,4.2487302,-1.16269254,0.39573343000000005,0.17178318600000003,1.3541021599999998,0.4476184290000001,1.47534095,0.142788138,,173.72727272727272,1,L06_NIRS-2019-08-15_003_trial04.txt,99.0
21,441.53599999999994,-1.41632243,-0.5234586539999999,9.54206892,-0.350866075,4.202909679999999,-1.1814293,0.4159182960000001,0.165494718,1.34727388,0.445109643,1.48572504,0.15043790399999998,,173.72727272727272,1,L06_NIRS-2019-08-15_003_trial04.txt,99.0
22,442.816,-1.3324974500000002,-0.46753626400000003,9.64241453,-0.315048066,4.18390121,-1.18876975,0.421556175,0.164871663,1.34533598,0.45176160500000007,1.50006838,0.15348415699999998,,173.72727272727272,1,L06_NIRS-2019-08-15_003_trial04.txt,99.0
23,444.096,-1.2517056899999999,-0.418089099,9.73106319,-0.27143452,4.159226599999999,-1.20160572,0.416086507,0.16524968,1.34557056,0.46012115500000006,1.51461178,0.147942499,,173.72727272727272,1,L06_NIRS-2019-08-15_003_trial04.txt,99.0
24,445.37600000000003,-1.27744757,-0.445511513,9.686251859999999,-0.288173498,4.08246186,-1.25148227,0.407970469,0.163380224,1.3481656800000001,0.46100628199999993,1.5251230599999999,0.136430337,,173.72727272727272,1,L06_NIRS-2019-08-15_003_trial04.txt,99.0
25,446.65599999999995,-1.34393484,-0.5167897389999999,9.55404455,-0.34556306800000003,3.99540414,-1.30217848,0.397859028,0.15996904399999998,1.3519553600000003,0.454246459,1.53016902,0.122779134,,173.72727272727272,1,L06_NIRS-2019-08-15_003_trial04.txt,99.0
26,447.936,-1.38494613,-0.554564721,9.46058382,-0.388775738,3.9615726900000006,-1.3070369000000002,0.359771666,0.161040907,1.3527680000000002,0.436315909,1.52437461,0.10455927120000001,,173.72727272727272,1,L06_NIRS-2019-08-15_003_trial04.txt,99.0
27,449.21600000000007,-1.31557667,-0.49815205100000004,9.506325189999998,-0.34722125,4.0236404299999995,-1.2451289099999998,0.297560162,0.166615328,1.3412285600000002,0.402112303,1.49549058,0.0794590519,,173.72727272727272,1,L06_NIRS-2019-08-15_003_trial04.txt,99.0
28,450.496,-1.18859917,-0.38203509999999996,9.663456270000001,-0.23058907999999997,4.15119634,-1.1508619999999998,0.22373480799999998,0.16879729799999998,1.3017362000000001,0.343603983,1.44674397,0.04942021919999999,,173.72727272727272,1,L06_NIRS-2019-08-15_003_trial04.txt,99.0
29,451.776,-1.0939123,-0.286435495,9.83233603,-0.0897038192,4.27898295,-1.0685628899999997,0.17692572200000004,0.16283399599999998,1.2440687499999998,0.27332622100000004,1.39995951,0.024034348699999996,,173.72727272727272,1,L06_NIRS-2019-08-15_003_trial04.txt,99.0
30,453.0559999999999,-1.1310689800000002,-0.290165385,9.859803970000002,-0.0321094326,4.31022161,-1.04229255,0.178709483,0.152010746,1.19477536,0.219307466,1.37057757,0.009060227180000002,,173.72727272727272,1,L06_NIRS-2019-08-15_003_trial04.txt,99.0
31,454.33599999999996,-1.2710981400000003,-0.36909612700000005,9.74810486,-0.0791162511,4.247367250000001,-1.06556128,0.22484726100000002,0.142830007,1.1873160400000002,0.206265153,1.3689533300000003,0.007571718220000001,,173.72727272727272,1,L06_NIRS-2019-08-15_003_trial04.txt,99.0
32,455.616,-1.40297573,-0.43935153499999996,9.62889508,-0.16232079100000002,4.16602534,-1.08079033,0.279386847,0.142678948,1.22303567,0.228688587,1.38688795,0.0122387517,,173.72727272727272,1,L06_NIRS-2019-08-15_003_trial04.txt,99.0
33,456.896,-1.43117277,-0.42645228899999993,9.625251119999998,-0.19193684900000002,4.149675670000001,-1.0476840699999999,0.311969305,0.152018538,1.2761895199999997,0.260816035,1.41072909,0.0141610523,,173.72727272727272,1,L06_NIRS-2019-08-15_003_trial04.txt,99.0
34,458.17600000000004,-1.34964427,-0.344944937,9.713885920000001,-0.15611035800000003,4.19414534,-0.991440235,0.311554588,0.16521595099999997,1.3181000299999999,0.280160872,1.4203429699999999,0.0079720556,,173.72727272727272,1,L06_NIRS-2019-08-15_003_trial04.txt,99.0
35,459.456,-1.21014708,-0.24217712099999997,9.837035039999998,-0.0799448441,4.273489400000001,-0.9304248940000001,0.278812672,0.17111808,1.3266764400000002,0.2705576580000001,1.41005708,-0.010302843713,,173.72727272727272,1,L06_NIRS-2019-08-15_003_trial04.txt,99.0
36,460.736,-1.0966989,-0.18665964,9.928039100000001,0.0008580025299999991,4.3390944,-0.8937634939999999,0.238361511,0.16284862800000002,1.29974135,0.239495872,1.39127055,-0.029970106100000005,,173.72727272727272,1,L06_NIRS-2019-08-15_003_trial04.txt,99.0
37,462.01599999999996,-1.0714309399999997,-0.18784931,9.934517490000001,0.022540334600000003,4.349000569999999,-0.889852773,0.21193717199999998,0.14721285299999998,1.2470791799999998,0.19792487299999997,1.3697030900000002,-0.0473174439,,173.72727272727272,1,L06_NIRS-2019-08-15_003_trial04.txt,99.0
38,463.296,-1.05570575,-0.18249185799999998,9.93115851,0.009081420238999998,4.33983042,-0.8832355310000001,0.19821254100000002,0.137401614,1.2037719199999999,0.172572136,1.351821,-0.059417047899999985,,173.72727272727272,1,L06_NIRS-2019-08-15_003_trial04.txt,99.0
39,464.576,-0.9936639790000001,-0.148415306,9.937143359999999,-0.016032431150000002,4.3308534299999994,-0.8638794919999999,0.16676576599999998,0.12919424,1.1617409699999999,0.150262666,1.32608902,-0.07754912,,173.72727272727272,1,L06_NIRS-2019-08-15_003_trial04.txt,99.0
40,465.85599999999994,-0.905259225,-0.09148552189999999,9.948487609999999,-0.03730284799999999,4.32854156,-0.8424041360000001,0.10802508870000001,0.119486486,1.1181501499999997,0.123212919,1.29271342,-0.10462546799999999,,173.72727272727272,1,L06_NIRS-2019-08-15_003_trial04.txt,99.0
41,467.1360000000001,-0.8449880120000002,-0.06626621690000001,9.90027114,-0.0796778007,4.2992925,-0.8466174610000001,0.03536391931,0.1055490701,1.0708511500000002,0.0924702596,1.2577492500000003,-0.132298752,,173.72727272727272,1,L06_NIRS-2019-08-15_003_trial04.txt,99.0
42,468.416,-0.8236296380000001,-0.07650420979999999,9.81149597,-0.124061426,4.261952320000001,-0.8657068929999999,-0.01467413561,0.0881715617,1.02695099,0.0649584939,1.23159198,-0.154626933,,173.72727272727272,1,L06_NIRS-2019-08-15_003_trial04.txt,99.0
43,469.696,-0.8755905930000001,-0.11572120770000001,9.723935829999999,-0.16284043,4.226202890000001,-0.8877648760000001,-0.0266520046,0.072696608,0.994457985,0.046087674399999994,1.2177430900000001,-0.16755238700000002,,173.72727272727272,1,L06_NIRS-2019-08-15_003_trial04.txt,99.0
44,470.97599999999994,-0.9652595039999998,-0.15117665,9.689153699999999,-0.18957942,4.208915929999999,-0.895406475,-0.006996082620000002,0.06262167599999999,0.982373937,0.041125560400000004,1.21756174,-0.16818879999999997,,173.72727272727272,1,L06_NIRS-2019-08-15_003_trial04.txt,99.0
45,472.25600000000003,-0.9981406329999999,-0.13052587799999998,9.758840719999998,-0.169532705,4.2494428300000004,-0.8610410349999998,0.028355827399999995,0.06667012330000001,1.003690248,0.0615583363,1.23552106,-0.16362985,,173.72727272727272,1,L06_NIRS-2019-08-15_003_trial04.txt,99.0
46,473.53600000000006,-0.921019304,-0.0524191401,9.905225400000003,-0.09746439529999999,4.34624689,-0.7816032529999999,0.04232009259999999,0.07717018239999998,1.04383085,0.09081462670000001,1.25459675,-0.16422934,,173.72727272727272,1,L06_NIRS-2019-08-15_003_trial04.txt,99.0
47,474.816,-0.793040993,0.02059214702,10.038196889999998,-0.009222086930000001,4.45265284,-0.696944622,0.014360937870000003,0.08153511709999998,1.0831511500000002,0.114547727,1.26631184,-0.17452566399999997,,173.72727272727272,1,L06_NIRS-2019-08-15_003_trial04.txt,99.0
48,476.0960000000001,-0.7224114880000001,0.030339346500000003,10.0658181,0.033760141199999996,4.501711210000001,-0.640178485,-0.03384263159999999,0.0720842402,1.10637608,0.12667643299999998,1.2719021799999999,-0.187182708,,173.72727272727272,1,L06_NIRS-2019-08-15_003_trial04.txt,99.0
49,477.37600000000003,-0.731011335,-0.004915231050000001,10.017765540000001,0.029774001499999998,4.50049438,-0.6082338300000001,-0.0563896583,0.058485895999999996,1.1262314,0.13637055199999998,1.2814617800000003,-0.194119649,,173.72727272727272,1,L06_NIRS-2019-08-15_003_trial04.txt,99.0
50,478.65599999999995,-0.802555102,-0.054423539300000004,9.93281729,-0.015387950155999999,4.46566045,-0.598153669,-0.041382307699999996,0.05104709860000001,1.1456181299999997,0.147070366,1.28820252,-0.196250408,,173.72727272727272,1,L06_NIRS-2019-08-15_003_trial04.txt,99.0
51,479.936,-0.859358866,-0.07254782539999999,9.880803080000002,-0.06908383920000001,4.42375706,-0.602075784,-0.01572320041,0.0483621198,1.1632091,0.16144280700000002,1.28874669,-0.19661439100000003,,173.72727272727272,1,L06_NIRS-2019-08-15_003_trial04.txt,99.0
52,481.21600000000007,-0.8199752080000001,-0.010502799830000001,9.95146936,-0.06245320950000001,4.436304960000001,-0.5905124490000001,-1.8682199999999948e-05,0.0532218438,1.17758106,0.179288905,1.2925931700000002,-0.199091162,,173.72727272727272,1,L06_NIRS-2019-08-15_003_trial04.txt,99.0
53,482.496,-0.673491985,0.1168663,10.1335813,0.02541321053,4.511946549999999,-0.544109513,-0.007852476978000001,0.05903047800000001,1.17654768,0.189828143,1.29209561,-0.20847561100000003,,173.72727272727272,1,L06_NIRS-2019-08-15_003_trial04.txt,99.0
54,483.77599999999995,-0.4812411770000001,0.237089237,10.3380658,0.1597743903,4.6233655,-0.47454926999999997,-0.0426004329,0.05569932369999999,1.14614538,0.183568428,1.28395449,-0.220767654,,173.72727272727272,1,L06_NIRS-2019-08-15_003_trial04.txt,99.0
55,485.0559999999999,-0.340744904,0.299147594,10.483619599999999,0.282508302,4.7214553200000005,-0.402559441,-0.08697865060000001,0.041436234700000005,1.09520864,0.16378390999999998,1.2709305699999998,-0.23460252400000003,,173.72727272727272,1,L06_NIRS-2019-08-15_003_trial04.txt,99.0
56,486.33599999999996,-0.26459875,0.30150127300000007,10.549096700000002,0.36404989899999995,4.793589679999999,-0.33194623,-0.114004156,0.023548162900000006,1.04931777,0.14439781299999999,1.2615457399999999,-0.24668099999999998,,173.72727272727272,1,L06_NIRS-2019-08-15_003_trial04.txt,99.0
57,487.616,-0.251475602,0.28777363499999997,10.581220499999999,0.41206998399999994,4.841363320000001,-0.26941439500000003,-0.11481967499999998,0.012539018999999998,1.02760267,0.135055288,1.25492024,-0.254927213,,173.72727272727272,1,L06_NIRS-2019-08-15_003_trial04.txt,99.0
58,488.896,-0.24008078400000002,0.29987758899999994,10.6236511,0.441198301,4.86917779,-0.21693002099999997,-0.09929698,0.009780086249999998,1.0264558000000001,0.135084826,1.25006842,-0.264530329,,173.72727272727272,1,L06_NIRS-2019-08-15_003_trial04.txt,99.0
59,490.17600000000004,-0.177894524,0.348406451,10.7032485,0.47344576999999993,4.892670570000001,-0.182069096,-0.0894534727,0.011002657700000001,1.03333062,0.139667542,1.25154852,-0.274283958,,173.72727272727272,1,L06_NIRS-2019-08-15_003_trial04.txt,99.0
60,491.456,-0.059020063959999994,0.4257408739999999,10.815329199999999,0.528160191,4.916396250000001,-0.15725045,-0.10085943630000001,0.010238794909999998,1.02665038,0.135088976,1.24773157,-0.29133263499999995,,173.72727272727272,1,L06_NIRS-2019-08-15_003_trial04.txt,99.0
61,492.736,0.1308113571,0.5227282579999999,10.9752592,0.630103105,4.9779738600000005,-0.10687864260000002,-0.140870604,0.0060745170400000005,0.998600827,0.11341528200000002,1.2341033499999998,-0.31654086800000003,,173.72727272727272,1,L06_NIRS-2019-08-15_003_trial04.txt,99.0
62,494.01599999999996,0.283099441,0.58347653,11.114776699999998,0.7349394770000001,5.039153720000001,-0.0578898124,-0.21162543299999997,-0.0023965668189,0.9522207570000001,0.07302608070000001,1.2068556,-0.348864551,,173.72727272727272,1,L06_NIRS-2019-08-15_003_trial04.txt,99.0
63,495.296,0.350261261,0.579527274,11.159118799999998,0.789734951,5.06078862,-0.029115281599999997,-0.280875239,-0.0182739899,0.88848755,0.015633760818000005,1.16664228,-0.37916501199999997,,173.72727272727272,1,L06_NIRS-2019-08-15_003_trial04.txt,99.0
64,496.576,0.272282164,0.524442562,11.1044421,0.7752951069999999,5.0270345800000005,-0.038218024899999994,-0.320745463,-0.0321046433,0.824295388,-0.0430270162,1.12248896,-0.398052446,,173.72727272727272,1,L06_NIRS-2019-08-15_003_trial04.txt,99.0
65,497.85599999999994,0.13561552549999994,0.47089740999999996,10.992632700000001,0.713799728,4.96627204,-0.06264968909999999,-0.31837370400000004,-0.038767546,0.7669187460000001,-0.09098900709999999,1.0828840000000002,-0.405480694,,173.72727272727272,1,L06_NIRS-2019-08-15_003_trial04.txt,99.0
66,499.1360000000001,0.0468094503,0.45535102,10.8876487,0.653132674,4.920668640000001,-0.086384485,-0.301704671,-0.0398053476,0.7294889139999999,-0.11633782200000001,1.0576681000000003,-0.403033616,,173.72727272727272,1,L06_NIRS-2019-08-15_003_trial04.txt,99.0
67,500.416,0.0756728459,0.5102179520000001,10.894388900000001,0.6749694140000001,4.94776991,-0.06840654669999999,-0.290227081,-0.0321725509,0.717840899,-0.12337269799999999,1.0436312600000002,-0.40061634999999995,,173.72727272727272,1,L06_NIRS-2019-08-15_003_trial04.txt,99.0
68,501.696,0.193737023,0.6072551049999999,11.024818999999999,0.792562693,5.05196331,-0.0005956510700000014,-0.2957813289999999,-0.021091914399999998,0.723163242,-0.12322483099999999,1.03786118,-0.401727979,,173.72727272727272,1,L06_NIRS-2019-08-15_003_trial04.txt,99.0
69,502.97599999999994,0.26426969999999994,0.663420518,11.1575311,0.9224208440000001,5.1455801,0.06239846579999999,-0.30937208899999996,-0.0150143742,0.7243085469999999,-0.129938887,1.0352991499999997,-0.407565398,,173.72727272727272,1,L06_NIRS-2019-08-15_003_trial04.txt,99.0
70,504.25600000000003,0.23947017499999998,0.661641634,11.2237787,1.001254508,5.16739135,0.0942785824,-0.298997799,-0.0115670743,0.725617483,-0.13727758099999998,1.0357020399999999,-0.40692815800000004,,173.72727272727272,1,L06_NIRS-2019-08-15_003_trial04.txt,99.0
71,505.53600000000006,0.14497868,0.611529146,11.190434400000001,0.999740579,5.1037827700000005,0.08299427000000001,-0.253882356,-0.007355841390000001,0.733343226,-0.136946228,1.04112156,-0.39886876899999996,,173.72727272727272,1,L06_NIRS-2019-08-15_003_trial04.txt,99.0
72,506.816,0.09214263390000002,0.5895681930000001,11.140182000000001,0.97203671,5.02731207,0.0654778726,-0.19646208000000004,0.00023477624299999989,0.7408857999999999,-0.127538931,1.04940109,-0.386988647,,173.72727272727272,1,L06_NIRS-2019-08-15_003_trial04.txt,99.0
73,508.0960000000001,0.180088091,0.673051931,11.228961199999999,1.017844121,5.0134763499999995,0.09299976019999999,-0.171453005,0.01171536683,0.7422928190000001,-0.11959716199999999,1.0528365100000001,-0.379042096,,173.72727272727272,1,L06_NIRS-2019-08-15_003_trial04.txt,99.0
74,509.37600000000003,0.45196334700000007,0.898970881,11.566960400000001,1.2204443900000002,5.11901409,0.20841423399999998,-0.19041941,0.03126001490000001,0.730557989,-0.12375143300000002,1.04561679,-0.38158282500000007,,173.72727272727272,1,L06_NIRS-2019-08-15_003_trial04.txt,99.0
75,510.65599999999995,0.7498217710000001,1.16945038,12.020951499999999,1.5049984200000002,5.257567809999999,0.36580308600000006,-0.25081338799999997,0.0457235786,0.694352011,-0.15104895999999998,1.01821637,-0.39516476,,173.72727272727272,1,L06_NIRS-2019-08-15_003_trial04.txt,99.0
76,511.936,0.9353482640000002,1.35399977,12.3971299,1.7698610599999998,5.31883099,0.46785587800000006,-0.306964879,0.0482276933,0.680637257,-0.18707310100000002,0.9952912959999999,-0.412249679,,173.72727272727272,1,L06_NIRS-2019-08-15_003_trial04.txt,99.0
77,513.216,0.976108562,1.44771723,12.7005467,1.9578712499999997,5.31579359,0.5072245180000001,-0.32711193200000005,0.0489046401,0.6520099380000002,-0.21408837200000003,0.987106279,-0.425804265,,173.72727272727272,1,L06_NIRS-2019-08-15_003_trial04.txt,99.0
