,time,S3_D4_HbO,S3_D3_HbO,S2_D3_HbO,S2_D2_HbO,S1_D2_HbO,S1_D1_HbO,S3_D4_HbR,S3_D3_HbR,S2_D3_HbR,S2_D2_HbR,S1_D2_HbR,S1_D1_HbR,Var14,score,labelnum,filename,total_time
0,865.216,0.25952936,0.797195432,-0.698419519,-0.048357756519999996,0.28524582200000004,-0.0900200994,-0.6171265740000001,-0.153082041,0.665678574,-0.404383174,-0.15766809099999998,-0.123074621,,138.63636363636363,0,L06_NIRS-2019-08-20_008_trial09.txt,125.0
1,866.4960000000001,-0.027164796290000005,0.8468045670000001,-0.73137361,-0.0782319383,0.268856969,-0.19323161500000002,-0.300313006,-0.15554009799999996,0.6414666569999999,-0.377268531,-0.145934807,-0.152125376,,138.63636363636363,0,L06_NIRS-2019-08-20_008_trial09.txt,125.0
2,867.7760000000001,-0.157194214,0.9449236939999999,-0.7200478580000002,-0.01114045638,0.324689844,-0.24400703700000004,-0.1038566393,-0.148047114,0.611493717,-0.39185620600000004,-0.159649405,-0.19584474899999998,,138.63636363636363,0,L06_NIRS-2019-08-20_008_trial09.txt,125.0
3,869.0560000000002,-0.1521777756,1.026704219,-0.700514646,0.0909104024,0.4007226060000001,-0.230202854,-0.04224414772,-0.162241219,0.5696552089999999,-0.41925529,-0.18512920299999996,-0.23130542799999998,,138.63636363636363,0,L06_NIRS-2019-08-20_008_trial09.txt,125.0
4,870.3359999999999,-0.027962293600000004,1.07494453,-0.6909851979999999,0.17951430699999998,0.465633346,-0.13404791729999999,-0.12188919980000001,-0.20979973100000002,0.544340843,-0.41829636499999995,-0.200791991,-0.238052102,,138.63636363636363,0,L06_NIRS-2019-08-20_008_trial09.txt,125.0
5,871.616,0.08018077894,1.10409621,-0.679551577,0.20925834100000001,0.49700869699999994,-0.019717233480000002,-0.168985501,-0.24424479200000002,0.5463416000000001,-0.3956767659999999,-0.20605066,-0.234863505,,138.63636363636363,0,L06_NIRS-2019-08-20_008_trial09.txt,125.0
6,872.8960000000001,0.210872446,1.0621522899999998,-0.686272855,0.14684630999999998,0.45614272299999997,0.015593139700000003,-0.362743645,-0.22575602199999997,0.5151048850000001,-0.365445044,-0.203774561,-0.23715485899999997,,138.63636363636363,0,L06_NIRS-2019-08-20_008_trial09.txt,125.0
7,874.176,0.30986768200000003,1.03473411,-0.6898371209999999,0.069961291,0.41038090299999996,0.01104060935,-0.5407825720000001,-0.22593548499999994,0.468777523,-0.338138422,-0.202132773,-0.25010689799999997,,138.63636363636363,0,L06_NIRS-2019-08-20_008_trial09.txt,125.0
8,875.4559999999999,0.293817691,1.02207728,-0.6714690919999999,0.0554690283,0.398284191,0.02675485694,-0.5239281140000001,-0.22249292,0.41347134499999993,-0.317410737,-0.213857279,-0.26798771900000007,,138.63636363636363,0,L06_NIRS-2019-08-20_008_trial09.txt,125.0
9,876.7360000000001,0.365909753,1.07302644,-0.637885815,0.1608417359,0.46760784199999994,0.1119607055,-0.542343655,-0.21725365500000002,0.399721396,-0.31679915299999994,-0.24143274099999998,-0.29223842899999997,,138.63636363636363,0,L06_NIRS-2019-08-20_008_trial09.txt,125.0
10,878.016,0.562532083,1.15054788,-0.560927759,0.33404164699999994,0.573927123,0.24778227300000003,-0.668980018,-0.22129368500000002,0.36257783299999996,-0.327320147,-0.276577979,-0.31406187899999993,,138.63636363636363,0,L06_NIRS-2019-08-20_008_trial09.txt,125.0
11,879.2959999999999,0.645644249,1.1942161300000003,-0.509887859,0.4883518459999999,0.658131745,0.382795256,-0.676079528,-0.216562263,0.33016078200000004,-0.32425795199999996,-0.30138502,-0.323651387,,138.63636363636363,0,L06_NIRS-2019-08-20_008_trial09.txt,125.0
12,880.576,0.592909959,1.1951268899999998,-0.566205018,0.48893077799999995,0.627882798,0.389474143,-0.6717932190000001,-0.25688702799999996,0.334651832,-0.310165193,-0.311087931,-0.331350171,,138.63636363636363,0,L06_NIRS-2019-08-20_008_trial09.txt,125.0
13,881.8560000000001,0.409145247,1.11732292,-0.7002629130000001,0.325730052,0.47578495099999996,0.23974825600000002,-0.6887178489999999,-0.29553217000000004,0.29994884099999997,-0.299329781,-0.305434726,-0.341578356,,138.63636363636363,0,L06_NIRS-2019-08-20_008_trial09.txt,125.0
14,883.1360000000001,0.20665655100000002,1.021394581,-0.8272497,0.1418326373,0.313178658,0.070977276,-0.716254888,-0.31958018,0.2956477780000001,-0.27775555599999996,-0.29404558399999997,-0.347217561,,138.63636363636363,0,L06_NIRS-2019-08-20_008_trial09.txt,125.0
15,884.4160000000002,0.14432903300000002,0.995174553,-0.8520862109999999,0.093607876,0.23697842000000002,-0.002395091694,-0.7681683180000001,-0.31767236,0.338119244,-0.236067114,-0.28531098200000005,-0.342446359,,138.63636363636363,0,L06_NIRS-2019-08-20_008_trial09.txt,125.0
16,885.6959999999999,0.20887661449999997,1.14766779,-0.709398409,0.27511625000000006,0.33977319,0.10178535600000001,-0.746921866,-0.310080208,0.38770428,-0.19903205300000001,-0.289939297,-0.33523782700000004,,138.63636363636363,0,L06_NIRS-2019-08-20_008_trial09.txt,125.0
17,886.976,0.563590286,1.3782047000000002,-0.40817534999999994,0.59015577,0.54535215,0.31010275400000004,-0.932276879,-0.284733689,0.398827009,-0.17587158600000002,-0.30871331100000005,-0.32945305699999994,,138.63636363636363,0,L06_NIRS-2019-08-20_008_trial09.txt,125.0
18,888.256,0.846853074,1.56955827,-0.08570384521,0.8818637710000001,0.744504872,0.513357412,-1.054528476,-0.23527515799999996,0.3788278499999999,-0.157994792,-0.327161851,-0.32596910000000007,,138.63636363636363,0,L06_NIRS-2019-08-20_008_trial09.txt,125.0
19,889.5360000000001,1.04883583,1.6490985500000002,0.0693292058,0.960596306,0.787667875,0.5728081819999999,-1.2882850200000002,-0.268887788,0.36574478200000005,-0.143287138,-0.338068513,-0.325940121,,138.63636363636363,0,L06_NIRS-2019-08-20_008_trial09.txt,125.0
20,890.816,0.9758327550000001,1.56425146,0.044710481139999994,0.8491553119999999,0.6831399680000001,0.51283979,-1.3565826199999997,-0.29513532299999995,0.3547811619999999,-0.11158955839999998,-0.32515754999999996,-0.31863543299999997,,138.63636363636363,0,L06_NIRS-2019-08-20_008_trial09.txt,125.0
21,892.0959999999999,0.705146444,1.36480675,-0.0713195432,0.6610187780000001,0.5122703000000001,0.42969218699999995,-1.27803301,-0.264687554,0.383774546,-0.045326946034999996,-0.295213077,-0.295269473,,138.63636363636363,0,L06_NIRS-2019-08-20_008_trial09.txt,125.0
22,893.3759999999999,0.5304467450000001,1.1843924600000002,-0.174710061,0.5514621279999999,0.385335214,0.42451681700000005,-1.26411553,-0.205327036,0.455869231,0.0671343426,-0.245578261,-0.25249379800000005,,138.63636363636363,0,L06_NIRS-2019-08-20_008_trial09.txt,125.0
23,894.656,0.466904921,1.19896136,-0.1329694966,0.5951192059999999,0.394766884,0.5037693959999999,-1.1309894800000002,-0.15386839100000002,0.510473552,0.16257039,-0.204560941,-0.22451771999999998,,138.63636363636363,0,L06_NIRS-2019-08-20_008_trial09.txt,125.0
24,895.936,0.7153968839999999,1.35588157,0.06252252193,0.7743021079999999,0.516946637,0.6448994989999999,-1.2046983399999998,-0.125790787,0.532782874,0.217553461,-0.18683280800000002,-0.21165165400000002,,138.63636363636363,0,L06_NIRS-2019-08-20_008_trial09.txt,125.0
25,897.216,1.01096326,1.55327863,0.299009359,1.0046950140000002,0.6838206330000001,0.8139534139999999,-1.34029804,-0.12002789400000002,0.550744866,0.23935306500000003,-0.18672412500000002,-0.204812838,,138.63636363636363,0,L06_NIRS-2019-08-20_008_trial09.txt,125.0
26,898.4960000000001,1.1696599600000002,1.6812656000000001,0.400695259,1.1208968499999998,0.767022346,0.9009681519999999,-1.4451455899999999,-0.172027486,0.560262687,0.22819372099999996,-0.198295042,-0.205752906,,138.63636363636363,0,L06_NIRS-2019-08-20_008_trial09.txt,125.0
27,899.7760000000001,1.20052427,1.6508339900000002,0.316947485,1.0866877799999999,0.736861402,0.882138555,-1.50756839,-0.187759324,0.578300963,0.21540810099999996,-0.204824522,-0.209984267,,138.63636363636363,0,L06_NIRS-2019-08-20_008_trial09.txt,125.0
28,901.0560000000002,1.1013897400000001,1.4925855399999999,0.13307235779999999,0.934421467,0.6201715460000001,0.7727855659999999,-1.52993509,-0.161841841,0.5625290520000001,0.21306284400000003,-0.205844087,-0.21527722900000001,,138.63636363636363,0,L06_NIRS-2019-08-20_008_trial09.txt,125.0
29,902.3359999999999,0.874960709,1.3046414199999998,-0.09229979284,0.7553866929999999,0.491181514,0.6354489639999998,-1.4778383700000002,-0.126287413,0.5872265910000001,0.22883661800000002,-0.19665534699999998,-0.22004789200000002,,138.63636363636363,0,L06_NIRS-2019-08-20_008_trial09.txt,125.0
30,903.616,0.726104119,1.22518171,-0.20089946199999997,0.617359453,0.40943518999999995,0.4753849170000001,-1.39987793,-0.1067255564,0.596735908,0.23324645299999996,-0.191063213,-0.241012298,,138.63636363636363,0,L06_NIRS-2019-08-20_008_trial09.txt,125.0
31,904.8960000000001,0.695940179,1.27921312,-0.16797722,0.5846007029999999,0.406744881,0.360133676,-1.3955941900000002,-0.12963101999999999,0.597102299,0.21955293399999998,-0.19775415999999998,-0.26507320799999995,,138.63636363636363,0,L06_NIRS-2019-08-20_008_trial09.txt,125.0
32,906.176,0.617253221,1.3624579200000002,-0.03534573693,0.618459577,0.448039962,0.32840581700000004,-1.32761584,-0.157435298,0.57077886,0.188817497,-0.20708699799999994,-0.270590715,,138.63636363636363,0,L06_NIRS-2019-08-20_008_trial09.txt,125.0
33,907.4559999999999,0.540280481,1.4123012400000001,0.0611091493,0.675521405,0.495179666,0.37524783100000003,-1.2880988100000001,-0.168789383,0.559768229,0.172237844,-0.20201937100000006,-0.252014657,,138.63636363636363,0,L06_NIRS-2019-08-20_008_trial09.txt,125.0
34,908.7360000000001,0.615135883,1.43370474,0.0967075895,0.699319963,0.516239262,0.45526937600000006,-1.35233735,-0.191275902,0.571697673,0.161200168,-0.193421257,-0.23164991100000004,,138.63636363636363,0,L06_NIRS-2019-08-20_008_trial09.txt,125.0
35,910.016,0.8036565299999999,1.41672654,0.07957223449999999,0.70054943,0.505694493,0.559260918,-1.50369396,-0.206714254,0.550373963,0.166628349,-0.18065930999999996,-0.21063909600000003,,138.63636363636363,0,L06_NIRS-2019-08-20_008_trial09.txt,125.0
36,911.2959999999999,0.8601545319999999,1.3857545400000002,0.021883861822,0.709100732,0.48985711699999995,0.6739896699999999,-1.37032143,-0.205905898,0.5795747769999999,0.18088201899999995,-0.166108841,-0.198211011,,138.63636363636363,0,L06_NIRS-2019-08-20_008_trial09.txt,125.0
37,912.576,1.038732042,1.35827811,-0.0332137046,0.7063229129999999,0.458301582,0.721356862,-1.4075424799999998,-0.17215416200000003,0.627350999,0.19491618400000002,-0.15295757299999999,-0.20254949900000002,,138.63636363636363,0,L06_NIRS-2019-08-20_008_trial09.txt,125.0
38,913.8560000000001,1.15443212,1.39221566,-0.02315991721,0.729508763,0.446053433,0.733129258,-1.3617766599999999,-0.15355604199999998,0.656883672,0.20985884099999996,-0.14384190199999997,-0.216296335,,138.63636363636363,0,L06_NIRS-2019-08-20_008_trial09.txt,125.0
39,915.1360000000001,1.25175109,1.38317509,0.0264275145,0.7529761460000001,0.4442026909999999,0.73553964,-1.39780847,-0.09529257499999999,0.6596430940000001,0.218037684,-0.136213957,-0.22155386200000002,,138.63636363636363,0,L06_NIRS-2019-08-20_008_trial09.txt,125.0
40,916.4160000000002,1.1894939199999999,1.3956992,0.061551329999999994,0.8361995830000002,0.5019629319999999,0.7862288420000001,-1.30154956,-0.04422157689999999,0.6737583629999999,0.23770156500000006,-0.12326972600000001,-0.213261025,,138.63636363636363,0,L06_NIRS-2019-08-20_008_trial09.txt,125.0
41,917.6959999999999,0.9690982399999999,1.41797014,0.0928402321,0.9263511359999999,0.583833584,0.8428250629999999,-1.0400311429999998,-0.03867079090000001,0.676602809,0.23721504499999999,-0.12225989200000001,-0.20807290299999998,,138.63636363636363,0,L06_NIRS-2019-08-20_008_trial09.txt,125.0
42,918.9759999999999,0.7685159589999999,1.42570601,0.0483108952,0.9878319399999999,0.650865671,0.8826429539999999,-0.829656717,-0.07657298240000002,0.6605287910000002,0.22265359099999996,-0.128926268,-0.20418969899999997,,138.63636363636363,0,L06_NIRS-2019-08-20_008_trial09.txt,125.0
43,920.2560000000001,0.6173169909999999,1.3814955000000002,-0.008828388499999998,1.0018931880000002,0.687593711,0.906941887,-0.7124065589999999,-0.0757896491,0.6242988380000002,0.20184948,-0.13854255199999999,-0.20214246599999997,,138.63636363636363,0,L06_NIRS-2019-08-20_008_trial09.txt,125.0
44,921.5359999999998,0.635456865,1.31633866,-0.08772076520000001,0.9489973150000001,0.6718255990000002,0.887602069,-0.865752522,-0.0536931689,0.608011603,0.191316957,-0.141247341,-0.200190667,,138.63636363636363,0,L06_NIRS-2019-08-20_008_trial09.txt,125.0
45,922.8159999999998,0.7723163949999999,1.2994615,-0.11666439300000002,0.9085446490000001,0.650652607,0.882401375,-1.0885758700000001,-0.04436508530000001,0.6114495590000001,0.20055478599999996,-0.130885777,-0.195592941,,138.63636363636363,0,L06_NIRS-2019-08-20_008_trial09.txt,125.0
46,924.0960000000001,0.9913663140000001,1.3195755500000002,-0.113648919,0.8852246029999999,0.6164625460000001,0.8750706090000001,-1.30904336,-0.034521973100000006,0.6445184319999999,0.21349296199999998,-0.114154944,-0.194860677,,138.63636363636363,0,L06_NIRS-2019-08-20_008_trial09.txt,125.0
47,925.3759999999999,1.09976915,1.3446158699999997,-0.06795744649999999,0.9159524970000001,0.5968992350000001,0.8900483630000002,-1.3723498500000002,-0.018194490259999998,0.6832127909999999,0.23476546599999998,-0.09583742210000001,-0.193350327,,138.63636363636363,0,L06_NIRS-2019-08-20_008_trial09.txt,125.0
48,926.656,1.042089621,1.3207731,0.0106494666589,0.9301239060000001,0.561181248,0.8724578189999999,-1.22885859,0.023738038620000002,0.6875125769999999,0.24433010499999996,-0.0844931478,-0.197299603,,138.63636363636363,0,L06_NIRS-2019-08-20_008_trial09.txt,125.0
49,927.936,0.999060131,1.32755273,0.075714052,0.9410166090000001,0.5468850640000001,0.863811897,-1.07891559,0.00926332047,0.692258438,0.23413783700000002,-0.0841925271,-0.20394360199999997,,138.63636363636363,0,L06_NIRS-2019-08-20_008_trial09.txt,125.0
50,929.216,1.1659265600000002,1.40174897,0.225058064,1.0133702199999999,0.6101332719999999,0.925945192,-1.11271649,-0.0033326750928999995,0.6724029170000001,0.19960117100000002,-0.1078649563,-0.21926152299999999,,138.63636363636363,0,L06_NIRS-2019-08-20_008_trial09.txt,125.0
51,930.4960000000001,1.38997341,1.5751471599999998,0.47783670800000005,1.2008566200000002,0.7829100549999999,1.10673641,-1.13971573,-0.015404717880000002,0.636146249,0.14605695699999996,-0.149000656,-0.23833726599999996,,138.63636363636363,0,L06_NIRS-2019-08-20_008_trial09.txt,125.0
52,931.7760000000001,1.5777221700000001,1.82677774,0.8112008279999999,1.49033101,1.028417407,1.3593380900000003,-1.09505979,-0.05144918350000001,0.578574485,0.0837145758,-0.19492556699999997,-0.26248851300000003,,138.63636363636363,0,L06_NIRS-2019-08-20_008_trial09.txt,125.0
53,933.0560000000002,1.6687169799999997,2.02433219,1.0267637660000002,1.71648709,1.2077862700000002,1.52835568,-0.9973256599999999,-0.08598067099999998,0.544535635,0.015694556441,-0.233684461,-0.29073122900000004,,138.63636363636363,0,L06_NIRS-2019-08-20_008_trial09.txt,125.0
54,934.336,1.5838453000000001,2.05434354,1.0235303670000002,1.7648535500000002,1.2432708,1.5495394500000002,-0.9440516459999999,-0.11707457400000001,0.5366359399999999,-0.0249362071,-0.25384296300000003,-0.309747962,,138.63636363636363,0,L06_NIRS-2019-08-20_008_trial09.txt,125.0
55,935.616,1.3370301599999999,1.86530835,0.8109740700000001,1.56262438,1.0949728760000002,1.39942653,-0.9444977050000001,-0.111776338,0.5044920850000001,-0.0194572183,-0.24792032800000002,-0.31107527599999996,,138.63636363636363,0,L06_NIRS-2019-08-20_008_trial09.txt,125.0
56,936.8960000000001,1.0639221600000002,1.62525601,0.4850838529999999,1.2395206799999998,0.8789007999999999,1.16636961,-1.007820242,-0.11398419400000001,0.510298046,0.0047134614117,-0.22893767,-0.308549379,,138.63636363636363,0,L06_NIRS-2019-08-20_008_trial09.txt,125.0
57,938.176,0.9950943210000001,1.5076771500000001,0.28603565100000006,1.0116942439999999,0.7304541760000001,0.990592195,-1.17542275,-0.13363668899999998,0.501154215,0.0293532091,-0.22228545300000002,-0.314660947,,138.63636363636363,0,L06_NIRS-2019-08-20_008_trial09.txt,125.0
58,939.4559999999999,0.954240903,1.5243317399999998,0.34927234000000007,1.0233145499999998,0.7512809220000001,0.9787369229999999,-1.10795061,-0.121492935,0.46677045799999994,0.021610362999999997,-0.24036098899999997,-0.33365648800000003,,138.63636363636363,0,L06_NIRS-2019-08-20_008_trial09.txt,125.0
59,940.7359999999999,1.08828024,1.66301837,0.611662476,1.24576086,0.913564754,1.1056215799999998,-1.0725318599999998,-0.11559032600000001,0.415040633,-0.01548798817,-0.27971536,-0.36306190099999996,,138.63636363636363,0,L06_NIRS-2019-08-20_008_trial09.txt,125.0
60,942.0160000000002,1.3371967000000002,1.80528723,0.8700581780000001,1.51687338,1.0972080899999999,1.26245995,-1.0796631300000001,-0.12707363,0.354857268,-0.0700579227,-0.31931581800000003,-0.391453681,,138.63636363636363,0,L06_NIRS-2019-08-20_008_trial09.txt,125.0
61,943.2959999999999,1.36717163,1.85028666,1.007535215,1.6611835900000003,1.1925049399999998,1.3686800299999997,-0.95587199,-0.163766522,0.332939969,-0.1121436514,-0.342876375,-0.408112533,,138.63636363636363,0,L06_NIRS-2019-08-20_008_trial09.txt,125.0
62,944.576,1.30587764,1.7211025799999997,1.0137668519999998,1.6149951699999998,1.15591065,1.3876220500000003,-0.901967127,-0.16447080200000003,0.30511434,-0.11238564899999999,-0.34036719299999996,-0.40747398399999996,,138.63636363636363,0,L06_NIRS-2019-08-20_008_trial09.txt,125.0
63,945.8560000000001,1.3699510700000002,1.5547463999999998,0.9679685119999999,1.48627623,1.0693184499999997,1.3607385699999999,-1.098184937,-0.14776446099999999,0.317713563,-0.0813488766,-0.324660954,-0.40903652399999996,,138.63636363636363,0,L06_NIRS-2019-08-20_008_trial09.txt,125.0
64,947.1360000000001,1.4657006200000002,1.47093775,1.01013663,1.3875994300000003,0.9929050140000001,1.3523400000000003,-1.28143243,-0.14291904500000002,0.318154278,-0.039841954299999996,-0.31551375000000004,-0.41418098,,138.63636363636363,0,L06_NIRS-2019-08-20_008_trial09.txt,125.0
65,948.4160000000002,1.5797160099999998,1.4829451200000001,1.19547798,1.39824981,0.98307891,1.3993828799999999,-1.3350476199999997,-0.145722132,0.284343718,-0.01325469,-0.319816619,-0.42527489999999996,,138.63636363636363,0,L06_NIRS-2019-08-20_008_trial09.txt,125.0
66,949.6959999999999,1.7826902100000002,1.5502598099999998,1.3696794,1.4786204399999998,1.0212471969999999,1.47756261,-1.45241518,-0.15042845099999996,0.285606444,-0.00954239526,-0.34229913700000003,-0.44205231000000006,,138.63636363636363,0,L06_NIRS-2019-08-20_008_trial09.txt,125.0
67,950.9759999999999,2.07715776,1.6487440600000003,1.4996449100000002,1.6148921699999998,1.10518179,1.58113444,-1.60719192,-0.160892528,0.30397751399999995,-0.0332825939,-0.371830557,-0.461966317,,138.63636363636363,0,L06_NIRS-2019-08-20_008_trial09.txt,125.0
68,952.2560000000001,2.14544921,1.7830996899999998,1.6117265499999998,1.76343752,1.21712827,1.69399516,-1.5501290600000002,-0.21900946999999996,0.292173532,-0.08695592659999998,-0.40981405400000004,-0.49029964000000004,,138.63636363636363,0,L06_NIRS-2019-08-20_008_trial09.txt,125.0
69,953.5359999999998,2.0795116300000003,1.8401097699999998,1.6603505299999999,1.9084965599999997,1.34081063,1.7945399600000003,-1.4117307000000001,-0.239227057,0.26891414599999997,-0.15831213600000002,-0.447120444,-0.5254135949999998,,138.63636363636363,0,L06_NIRS-2019-08-20_008_trial09.txt,125.0
70,954.8159999999998,1.98144044,1.8224553700000001,1.6167436400000004,2.02973545,1.45319917,1.8802468099999998,-1.34569364,-0.24510435999999997,0.26140810000000003,-0.21399062600000002,-0.4770761529999999,-0.558227424,,138.63636363636363,0,L06_NIRS-2019-08-20_008_trial09.txt,125.0
71,956.0960000000001,1.7655899099999999,1.7851191699999998,1.52883502,2.0461755800000003,1.4918280000000002,1.8801997399999997,-1.2194519,-0.296089849,0.22557195000000002,-0.247900968,-0.4971048130000001,-0.5801676830000001,,138.63636363636363,0,L06_NIRS-2019-08-20_008_trial09.txt,125.0
72,957.3759999999999,1.6113000200000003,1.7442074399999998,1.4471063000000002,1.9998815500000002,1.49046843,1.86051572,-1.11938483,-0.31819190399999997,0.176681546,-0.262527493,-0.505853618,-0.581401967,,138.63636363636363,0,L06_NIRS-2019-08-20_008_trial09.txt,125.0
73,958.656,1.67754048,1.7170939399999998,1.2943191100000002,1.9043245800000002,1.4469408200000002,1.84273734,-1.2652751,-0.33300415399999994,0.193871425,-0.26556251900000005,-0.513271108,-0.5662093469999999,,138.63636363636363,0,L06_NIRS-2019-08-20_008_trial09.txt,125.0
74,959.936,1.8335071299999999,1.7389963600000002,1.18087045,1.8588715400000002,1.4197078699999999,1.8894812900000002,-1.3762279,-0.308314082,0.25420991,-0.25713551100000004,-0.519156869,-0.544516178,,138.63636363636363,0,L06_NIRS-2019-08-20_008_trial09.txt,125.0
75,961.216,2.1373254999999998,1.87449139,1.22110622,1.9293608800000002,1.46934341,2.02359606,-1.4568530599999998,-0.29135858600000003,0.296619228,-0.256392678,-0.5329184220000001,-0.549458455,,138.63636363636363,0,L06_NIRS-2019-08-20_008_trial09.txt,125.0
76,962.4960000000001,2.48409957,2.0385497900000003,1.3708751300000002,2.0949213799999997,1.5833397,2.20035848,-1.4728321299999998,-0.24496566300000003,0.310848257,-0.266452229,-0.5486340310000001,-0.5824818810000001,,138.63636363636363,0,L06_NIRS-2019-08-20_008_trial09.txt,125.0
77,963.7760000000001,2.70744725,2.18815016,1.5726525900000001,2.26614123,1.69921225,2.35191629,-1.42490944,-0.225671252,0.280338427,-0.270443082,-0.5620788520000001,-0.624523014,,138.63636363636363,0,L06_NIRS-2019-08-20_008_trial09.txt,125.0
78,965.0560000000002,2.7949759,2.2963492500000005,1.73125318,2.3484024499999996,1.7489823200000003,2.39564572,-1.3596243000000001,-0.24070673,0.23227653199999998,-0.25960932500000006,-0.568092341,-0.659231476,,138.63636363636363,0,L06_NIRS-2019-08-20_008_trial09.txt,125.0
79,966.336,2.91725875,2.3867015599999997,1.8808429400000002,2.4179657800000003,1.8031811000000002,2.44632892,-1.3468731799999998,-0.23707356300000004,0.22064435799999998,-0.24412165399999997,-0.5691596240000001,-0.672124121,,138.63636363636363,0,L06_NIRS-2019-08-20_008_trial09.txt,125.0
80,967.616,3.01054027,2.4973367400000006,1.9885561800000002,2.50408056,1.87242249,2.5446356999999997,-1.3583725,-0.262788943,0.22561465099999997,-0.24126528800000005,-0.578197238,-0.6669257830000002,,138.63636363636363,0,L06_NIRS-2019-08-20_008_trial09.txt,125.0
81,968.8960000000001,3.2132119699999997,2.63102414,2.1037799799999997,2.6389951199999997,1.9561327400000004,2.68392394,-1.41645551,-0.29853418400000004,0.21221615100000002,-0.243217543,-0.590084296,-0.654863682,,138.63636363636363,0,L06_NIRS-2019-08-20_008_trial09.txt,125.0
82,970.176,3.47572687,2.75460745,2.27307544,2.8113369300000004,2.0576204799999998,2.84341559,-1.5068005700000002,-0.32053690500000004,0.168918935,-0.24879193600000002,-0.601305364,-0.657142406,,138.63636363636363,0,L06_NIRS-2019-08-20_008_trial09.txt,125.0
83,971.4559999999999,3.6722845499999996,2.81997732,2.3974019699999998,2.96918184,2.15650223,2.9773515099999996,-1.5538642700000003,-0.3141384,0.11645793370000002,-0.24456135099999998,-0.6020374809999999,-0.667701351,,138.63636363636363,0,L06_NIRS-2019-08-20_008_trial09.txt,125.0
84,972.7359999999999,3.647515779999999,2.80191633,2.3947138000000003,3.03163988,2.2013083700000005,3.0318781500000003,-1.49545558,-0.312216307,0.0672040412,-0.22946172799999998,-0.5941857070000001,-0.6754979329999999,,138.63636363636363,0,L06_NIRS-2019-08-20_008_trial09.txt,125.0
85,974.0160000000002,3.58171823,2.7031629600000002,2.2222950700000004,2.98983552,2.18327364,3.0087555299999997,-1.58941354,-0.308106648,0.0515835187,-0.20081296399999998,-0.578276885,-0.669841252,,138.63636363636363,0,L06_NIRS-2019-08-20_008_trial09.txt,125.0
86,975.2959999999999,3.3844527300000005,2.6035783500000003,1.9702095699999997,2.9136899,2.15792069,3.00134018,-1.5748631000000004,-0.311771849,0.0962135658,-0.15754096,-0.5555857380000001,-0.647858069,,138.63636363636363,0,L06_NIRS-2019-08-20_008_trial09.txt,125.0
87,976.576,3.16020817,2.52152687,1.7119968700000001,2.84077763,2.1535896699999997,3.06026011,-1.4647571,-0.28570974499999996,0.18178581100000002,-0.11103123339999998,-0.534129005,-0.614937491,,138.63636363636363,0,L06_NIRS-2019-08-20_008_trial09.txt,125.0
88,977.8560000000001,3.13511026,2.44855914,1.4919158799999999,2.74683175,2.1365343799999996,3.1067074199999998,-1.46002026,-0.241151202,0.23712329599999998,-0.0716258598,-0.517246147,-0.590376113,,138.63636363636363,0,L06_NIRS-2019-08-20_008_trial09.txt,125.0
89,979.1360000000001,3.0263930599999997,2.34560903,1.2909809399999999,2.59096295,2.0562605300000003,3.0801797599999996,-1.4689427,-0.212420487,0.25792273099999996,-0.0384899385,-0.4997453989999999,-0.576635468,,138.63636363636363,0,L06_NIRS-2019-08-20_008_trial09.txt,125.0
90,980.4160000000002,2.78937043,2.1564571700000004,1.006473203,2.3638993499999996,1.9022529,2.96754354,-1.4006773099999998,-0.18337428,0.323099908,0.01241952992,-0.47066084,-0.563207272,,138.63636363636363,0,L06_NIRS-2019-08-20_008_trial09.txt,125.0
91,981.6959999999999,2.40802722,1.91933663,0.6687288330000001,2.08925214,1.7024364900000002,2.7949093800000004,-1.2421447600000002,-0.140084882,0.43036443799999996,0.08101770679999999,-0.432476341,-0.5396502300000001,,138.63636363636363,0,L06_NIRS-2019-08-20_008_trial09.txt,125.0
92,982.9759999999999,2.24126005,1.7436044,0.39204380400000005,1.8543337699999998,1.5320103299999999,2.64536919,-1.4115531000000001,-0.115642106,0.534067924,0.15878087200000002,-0.393476978,-0.5053757799999999,,138.63636363636363,0,L06_NIRS-2019-08-20_008_trial09.txt,125.0
93,983.68,2.1496703,1.6938278,0.28973847,1.7557571,1.4637706,2.5886779,-1.4549574,-0.1121443,0.58388453,0.19666753,-0.37626275,-0.48594394,,138.63636363636363,0,L06_NIRS-2019-08-20_008_trial09.txt,125.0
