,time,S3_D4_HbO,S3_D3_HbO,S2_D3_HbO,S2_D2_HbO,S1_D2_HbO,S1_D1_HbO,S3_D4_HbR,S3_D3_HbR,S2_D3_HbR,S2_D2_HbR,S1_D2_HbR,S1_D1_HbR,Var14,score,labelnum,filename,total_time
0,14.144,2.79920995,-3.1410525600000003,-1.9740235599999998,1.3709910600000002,-0.518011681,-1.7246404800000001,-0.13716827199999998,-1.5052909200000002,-1.4407571900000002,0.328418356,0.27149485900000003,-0.604059134,,38.81818181818181,0,L06_NIRS-2019-08-19_007_trial01.txt,243.0
1,15.424000000000001,2.71531057,-3.1228102099999995,-2.1534619400000006,1.28177319,-0.590983476,-1.8421170600000003,-0.124286495,-1.4692662200000002,-1.4258977700000002,0.30750707099999997,0.274985388,-0.5695023770000001,,38.81818181818181,0,L06_NIRS-2019-08-19_007_trial01.txt,243.0
2,16.704,2.59017595,-3.13805983,-2.3758853899999997,1.2748014600000002,-0.639505204,-1.9653181399999997,-0.109915739,-1.44355566,-1.40484914,0.259198764,0.253478179,-0.527333463,,38.81818181818181,0,L06_NIRS-2019-08-19_007_trial01.txt,243.0
3,17.984,2.5078206400000003,-3.18153447,-2.5139482299999996,1.39825212,-0.633437236,-2.02705443,-0.09732722619999999,-1.4525882200000002,-1.3914244199999999,0.19867117699999998,0.215737035,-0.486062213,,38.81818181818181,0,L06_NIRS-2019-08-19_007_trial01.txt,243.0
4,19.264,2.5338903700000004,-3.1613917300000005,-2.4842588900000004,1.58466357,-0.563347254,-2.01457785,-0.08364407540000002,-1.4643525999999998,-1.381615,0.14977379,0.17227088299999999,-0.45552983999999996,,38.81818181818181,0,L06_NIRS-2019-08-19_007_trial01.txt,243.0
5,20.544,2.6373307800000005,-3.06457338,-2.32005563,1.7567080099999999,-0.464142759,-1.9666644500000001,-0.07856806660000001,-1.4685169900000001,-1.37016248,0.12794391600000002,0.13632902000000002,-0.43677946999999995,,38.81818181818181,0,L06_NIRS-2019-08-19_007_trial01.txt,243.0
6,21.824,2.7414265700000007,-2.9410184999999998,-2.14539063,1.85554022,-0.397206021,-1.9362024400000002,-0.0855253514,-1.4660572799999998,-1.36244608,0.12207020099999999,0.119877304,-0.4231437720000001,,38.81818181818181,0,L06_NIRS-2019-08-19_007_trial01.txt,243.0
7,23.104,2.77185779,-2.86996031,-2.09967205,1.86977294,-0.40569127200000005,-1.95227094,-0.0961274996,-1.45992193,-1.36233845,0.12281840599999998,0.136703265,-0.40696859300000005,,38.81818181818181,0,L06_NIRS-2019-08-19_007_trial01.txt,243.0
8,24.384,2.79368836,-2.830786389999999,-2.13014136,1.8068732699999999,-0.41932351900000003,-1.9252137499999997,-0.10154927709999999,-1.44943544,-1.3635783700000002,0.138019774,0.16066060200000004,-0.37628493599999996,,38.81818181818181,0,L06_NIRS-2019-08-19_007_trial01.txt,243.0
9,25.663999999999998,2.8617622000000003,-2.76927947,-2.07491088,1.7630445700000004,-0.38451058899999996,-1.80431837,-0.109614714,-1.4403031199999998,-1.3634782600000002,0.157354473,0.17309863800000003,-0.340966454,,38.81818181818181,0,L06_NIRS-2019-08-19_007_trial01.txt,243.0
10,26.944,3.00792128,-2.65236188,-1.8370000000000002,1.75286133,-0.2727825,-1.59788703,-0.120115203,-1.4440885,-1.37493271,0.191973101,0.178501512,-0.3176833,,38.81818181818181,0,L06_NIRS-2019-08-19_007_trial01.txt,243.0
11,28.224,3.1873233899999995,-2.4889889499999995,-1.4539207600000001,1.77841767,-0.11987474570000001,-1.3767652499999998,-0.124794987,-1.4481272199999997,-1.39615583,0.23251923400000002,0.179670233,-0.313034016,,38.81818181818181,0,L06_NIRS-2019-08-19_007_trial01.txt,243.0
12,29.504,3.3403556800000005,-2.3059646000000003,-1.026587231,1.8254230500000002,0.03767487593,-1.19063343,-0.10953029759999999,-1.43290927,-1.4170914599999997,0.267985892,0.176847962,-0.32090254999999995,,38.81818181818181,0,L06_NIRS-2019-08-19_007_trial01.txt,243.0
13,30.784000000000002,3.4427585800000005,-2.1247806700000003,-0.650473767,1.8973715500000004,0.16810034199999999,-1.0495124730000003,-0.080229282,-1.40130646,-1.4361548499999999,0.293548368,0.17146219099999999,-0.335127998,,38.81818181818181,0,L06_NIRS-2019-08-19_007_trial01.txt,243.0
14,32.064,3.5075890199999997,-1.9536497799999997,-0.38015613800000003,2.01762071,0.27853548899999997,-0.9405475800000002,-0.0484596255,-1.35936459,-1.44611233,0.306767813,0.17610155199999997,-0.343974486,,38.81818181818181,0,L06_NIRS-2019-08-19_007_trial01.txt,243.0
15,33.344,3.5728105599999993,-1.7870911500000002,-0.186287493,2.1696407300000002,0.38061467600000004,-0.837546498,-0.026845507299999998,-1.31926048,-1.4480473200000001,0.297190627,0.185145343,-0.3443354020000001,,38.81818181818181,0,L06_NIRS-2019-08-19_007_trial01.txt,243.0
16,34.624,3.59848198,-1.64870472,-0.025497492629999997,2.34033821,0.44245197999999986,-0.7647554870000001,-0.030387163000000002,-1.2910220900000002,-1.4635000599999999,0.264081047,0.18520768699999998,-0.342522675,,38.81818181818181,0,L06_NIRS-2019-08-19_007_trial01.txt,243.0
17,35.904,3.62174581,-1.52965581,0.07487623269999999,2.4496486600000003,0.50505862,-0.682349895,-0.049447854599999994,-1.2805904399999999,-1.46863288,0.24341703099999998,0.18295852800000004,-0.338611821,,38.81818181818181,0,L06_NIRS-2019-08-19_007_trial01.txt,243.0
18,37.184,3.72557946,-1.34793441,0.158433081,2.54287387,0.6143996540000001,-0.5059203429999999,-0.0742906271,-1.2777546,-1.43651199,0.254881581,0.182324489,-0.338170688,,38.81818181818181,0,L06_NIRS-2019-08-19_007_trial01.txt,243.0
19,38.464,3.9359740300000006,-1.065338986,0.280942986,2.6644876499999994,0.782539634,-0.2105804542,-0.09435505529999999,-1.27844286,-1.37939763,0.267921381,0.17991135600000002,-0.34236418999999996,,38.81818181818181,0,L06_NIRS-2019-08-19_007_trial01.txt,243.0
20,39.744,4.195408909999999,-0.7221565759999999,0.40782548199999996,2.7547394699999996,0.964530875,0.16266560762,-0.11345755300000002,-1.28089315,-1.3126688,0.29171393799999995,0.16880022499999997,-0.355822501,,38.81818181818181,0,L06_NIRS-2019-08-19_007_trial01.txt,243.0
21,41.024,4.39303858,-0.4273866440000001,0.532191796,2.79314794,1.1005777399999999,0.49487166600000004,-0.142586029,-1.28471762,-1.28011273,0.328602419,0.154580714,-0.376013952,,38.81818181818181,0,L06_NIRS-2019-08-19_007_trial01.txt,243.0
22,42.304,4.40989578,-0.326830137,0.5445925079999999,2.75512141,1.14752345,0.674872635,-0.16585344800000001,-1.2876754499999998,-1.29297763,0.35704476799999996,0.136912157,-0.384837829,,38.81818181818181,0,L06_NIRS-2019-08-19_007_trial01.txt,243.0
23,43.584,4.16699846,-0.5117273709999999,0.398370554,2.59907363,1.0332502209999999,0.613165883,-0.16655741500000001,-1.2763269299999997,-1.34159305,0.358666415,0.11076138540000002,-0.37319616099999997,,38.81818181818181,0,L06_NIRS-2019-08-19_007_trial01.txt,243.0
24,44.86399999999999,3.8010453799999993,-0.8622807810000002,0.14907588559999999,2.37173303,0.827022718,0.392225822,-0.140980263,-1.2445469799999997,-1.37282832,0.35804325899999995,0.0859145073,-0.34076339,,38.81818181818181,0,L06_NIRS-2019-08-19_007_trial01.txt,243.0
25,46.14399999999999,3.51694686,-1.10998984,-0.07918560683,2.1685178400000003,0.641239867,0.1511492439,-0.116038475,-1.2065192100000002,-1.34840333,0.370131255,0.06939646790000001,-0.307854765,,38.81818181818181,0,L06_NIRS-2019-08-19_007_trial01.txt,243.0
26,47.42399999999999,3.4277339600000003,-1.22029063,-0.1264110725,2.0860213600000006,0.5419588289999999,-0.03207854071,-0.11737449500000001,-1.17933769,-1.33142323,0.362733681,0.059879372900000005,-0.293154244,,38.81818181818181,0,L06_NIRS-2019-08-19_007_trial01.txt,243.0
27,48.70399999999999,3.5244592299999993,-1.18700004,0.015767085340000004,2.1007378700000006,0.59061865,-0.0668414167,-0.145480005,-1.16423098,-1.33755718,0.350898602,0.034429615,-0.3071141999999999,,38.81818181818181,0,L06_NIRS-2019-08-19_007_trial01.txt,243.0
28,49.983999999999995,3.7836017100000006,-1.042151604,0.29867256500000006,2.18239379,0.6704190079999999,0.068677198111,-0.229959488,-1.1441126899999998,-1.3925804899999998,0.34838673400000003,0.046159666700000004,-0.341598363,,38.81818181818181,0,L06_NIRS-2019-08-19_007_trial01.txt,243.0
29,51.263999999999996,4.12704823,-0.86520969,0.567995912,2.28150039,0.762640183,0.306798975,-0.35139970800000003,-1.18829011,-1.4595201599999998,0.34554202600000006,0.08506168420000002,-0.38743194000000003,,38.81818181818181,0,L06_NIRS-2019-08-19_007_trial01.txt,243.0
30,52.544,4.41453777,-0.768374898,0.78965514,2.3927266700000005,0.861069796,0.5480397850000001,-0.447047675,-1.25939458,-1.52710917,0.34301339900000005,0.1033439531,-0.44272173600000003,,38.81818181818181,0,L06_NIRS-2019-08-19_007_trial01.txt,243.0
31,53.824,4.57627293,-0.726880108,0.9442698359999999,2.4894159,0.917454878,0.7087427829999999,-0.485757903,-1.30772251,-1.5665900400000001,0.347562208,0.09415256270000001,-0.48881161399999995,,38.81818181818181,0,L06_NIRS-2019-08-19_007_trial01.txt,243.0
32,55.104,4.56912304,-0.6999850060000001,0.979398013,2.5104323400000004,0.896121087,0.72096728,-0.47772615900000004,-1.32257698,-1.5694370599999998,0.34848709,0.0667751203,-0.5246574030000001,,38.81818181818181,0,L06_NIRS-2019-08-19_007_trial01.txt,243.0
33,56.384,4.44156736,-0.756053735,0.930409555,2.4609704700000004,0.8487982550000002,0.621044052,-0.441818213,-1.30371787,-1.56893663,0.346623267,0.028523096150000003,-0.545288632,,38.81818181818181,0,L06_NIRS-2019-08-19_007_trial01.txt,243.0
34,57.664,4.24996407,-0.8748159600000001,0.806725939,2.33593882,0.801975273,0.47431502999999997,-0.40298619,-1.2585450200000001,-1.5711230600000001,0.34028779700000006,-0.02352025431,-0.555810607,,38.81818181818181,0,L06_NIRS-2019-08-19_007_trial01.txt,243.0
35,58.944,4.15904838,-0.9461317140000001,0.649777112,2.1846756899999997,0.7477614570000001,0.407262153,-0.409365139,-1.2071489400000002,-1.56903226,0.33395296199999996,-0.043133695799999996,-0.5573187190000001,,38.81818181818181,0,L06_NIRS-2019-08-19_007_trial01.txt,243.0
36,60.22399999999999,4.20636401,-0.9375967819999997,0.4982394149999999,2.04331417,0.685087696,0.401402164,-0.4886921140000001,-1.2513542999999998,-1.5746605800000002,0.32024412,-0.03584024000000001,-0.5637272469999999,,38.81818181818181,0,L06_NIRS-2019-08-19_007_trial01.txt,243.0
37,61.504000000000005,4.34704336,-0.862676335,0.44845387700000006,1.9973241899999998,0.7127367830000001,0.4606655310000001,-0.5945238139999999,-1.3544551,-1.59918025,0.30493086999999997,-0.050507493800000004,-0.591858506,,38.81818181818181,0,L06_NIRS-2019-08-19_007_trial01.txt,243.0
38,62.78399999999999,4.470991929999999,-0.741412969,0.4732458869999999,2.01371712,0.757903533,0.512804243,-0.6814833849999999,-1.4394380199999999,-1.6248492499999998,0.295684353,-0.06949780409999999,-0.6090763779999999,,38.81818181818181,0,L06_NIRS-2019-08-19_007_trial01.txt,243.0
39,64.064,4.5216261200000005,-0.6003888249999999,0.508403199,2.02297802,0.775066398,0.538544195,-0.7068659500000001,-1.44911096,-1.62011253,0.29674358700000003,-0.0809654041,-0.603363341,,38.81818181818181,0,L06_NIRS-2019-08-19_007_trial01.txt,243.0
40,65.34400000000001,4.47507097,-0.503377034,0.4835481890000001,1.9706926099999997,0.7450949339999999,0.51593789,-0.6621881570000001,-1.3736381500000001,-1.57223438,0.31652262000000003,-0.07290272680000001,-0.568548136,,38.81818181818181,0,L06_NIRS-2019-08-19_007_trial01.txt,243.0
41,66.624,4.3462304,-0.4987647129999999,0.378131906,1.84839198,0.6501250780000001,0.41570051500000005,-0.560438845,-1.22512585,-1.4782272099999996,0.35542967300000006,-0.05253206309999999,-0.5147399050000001,,38.81818181818181,0,L06_NIRS-2019-08-19_007_trial01.txt,243.0
42,67.904,4.2017596699999995,-0.542454527,0.27385935899999997,1.7217260799999998,0.542324686,0.297375154,-0.44229086500000003,-1.044082006,-1.35071533,0.415706222,-0.025731130199999997,-0.452145493,,38.81818181818181,0,L06_NIRS-2019-08-19_007_trial01.txt,243.0
43,69.184,4.0989877,-0.581410894,0.225283182,1.6323077299999997,0.454436784,0.20358509099999997,-0.35077938100000006,-0.8900236510000001,-1.2286150000000002,0.480783907,-0.002605415924,-0.397073782,,38.81818181818181,0,L06_NIRS-2019-08-19_007_trial01.txt,243.0
44,70.46400000000001,4.075754420000001,-0.5649216389999999,0.256044179,1.59616417,0.420498628,0.17243658,-0.31523440999999996,-0.7960285839999999,-1.1371191699999998,0.536417516,0.014806460600000002,-0.363424059,,38.81818181818181,0,L06_NIRS-2019-08-19_007_trial01.txt,243.0
45,71.744,4.09447172,-0.513261435,0.29808534,1.5834577199999997,0.432161083,0.191051727,-0.320557313,-0.756066455,-1.08855772,0.5695644420000001,0.027879977699999996,-0.345005555,,38.81818181818181,0,L06_NIRS-2019-08-19_007_trial01.txt,243.0
46,73.02399999999999,4.11490051,-0.456863507,0.316130804,1.5866842499999998,0.465843592,0.24348812100000003,-0.32481905099999997,-0.7381700670000001,-1.0665786,0.582595497,0.0341154267,-0.333937777,,38.81818181818181,0,L06_NIRS-2019-08-19_007_trial01.txt,243.0
47,74.304,4.07921801,-0.4589857160000001,0.246521475,1.54909149,0.45626006500000005,0.23518853599999998,-0.307008724,-0.7285079950000001,-1.05560646,0.584889095,0.035738002899999996,-0.323406571,,38.81818181818181,0,L06_NIRS-2019-08-19_007_trial01.txt,243.0
48,75.58399999999999,4.00206808,-0.5114272160000001,0.148776321,1.48887272,0.4213668360000001,0.17677690299999996,-0.26533908000000006,-0.7114422279999999,-1.0374378700000002,0.592478278,0.0396109215,-0.300566767,,38.81818181818181,0,L06_NIRS-2019-08-19_007_trial01.txt,243.0
49,76.86399999999999,3.89353871,-0.5815027409999999,0.0642130925,1.40515566,0.362310249,0.07026815019999999,-0.22176987100000006,-0.6829506479999999,-1.0097256519999998,0.6107019959999999,0.04110346930000001,-0.268194699,,38.81818181818181,0,L06_NIRS-2019-08-19_007_trial01.txt,243.0
50,78.14399999999999,3.82308793,-0.608806741,0.0305596641,1.3285953999999998,0.31682386400000007,-0.02468855753,-0.187496086,-0.6525330330000001,-0.980614031,0.634687928,0.0431400535,-0.22602973199999998,,38.81818181818181,0,L06_NIRS-2019-08-19_007_trial01.txt,243.0
51,79.424,3.82244967,-0.5737484969999999,0.048729968199999994,1.28619251,0.30541215600000005,-0.07950480419999999,-0.174393814,-0.629309407,-0.954345726,0.66394295,0.046971847100000005,-0.183233706,,38.81818181818181,0,L06_NIRS-2019-08-19_007_trial01.txt,243.0
52,80.704,3.86225126,-0.5175361190000001,0.10058012179999998,1.30738486,0.32125148200000003,-0.0895834594,-0.168529795,-0.6110715959999999,-0.935169399,0.6896681010000001,0.0546026069,-0.142832336,,38.81818181818181,0,L06_NIRS-2019-08-19_007_trial01.txt,243.0
53,81.984,3.9062600700000005,-0.472047508,0.170819785,1.39467304,0.359923632,-0.06137140750000001,-0.151601326,-0.584697161,-0.9135809759999999,0.7089529699999999,0.06705878950000001,-0.10660645490000001,,38.81818181818181,0,L06_NIRS-2019-08-19_007_trial01.txt,243.0
54,83.264,3.90156791,-0.47270058499999995,0.212204873,1.4850855299999999,0.3887826019999999,-0.0618751595,-0.10939843810000002,-0.5498565360000001,-0.892676468,0.718989085,0.0897549877,-0.07289628810000001,,38.81818181818181,0,L06_NIRS-2019-08-19_007_trial01.txt,243.0
55,84.54400000000001,3.8533264099999998,-0.505785235,0.23529109999999998,1.53825455,0.423702078,-0.106256094,-0.06180984719999999,-0.516810694,-0.8779475019999999,0.723285124,0.12025632500000001,-0.051593307899999996,,38.81818181818181,0,L06_NIRS-2019-08-19_007_trial01.txt,243.0
56,85.824,3.77265299,-0.5621722850000002,0.19639972700000002,1.48894223,0.41707682199999996,-0.197063025,-0.0410679795,-0.5040336419999999,-0.8799630629999999,0.716296389,0.14100788699999997,-0.0447155873,,38.81818181818181,0,L06_NIRS-2019-08-19_007_trial01.txt,243.0
57,87.104,3.6906600800000007,-0.634842573,0.07343901879999999,1.3438009999999998,0.36386048699999995,-0.315822803,-0.0469255695,-0.521457537,-0.8981884539999999,0.700763258,0.15012483499999998,-0.0433294135,,38.81818181818181,0,L06_NIRS-2019-08-19_007_trial01.txt,243.0
58,88.384,3.67520027,-0.6751933560000001,-0.046333496069999994,1.2176757200000001,0.31405051199999995,-0.380380931,-0.0789474102,-0.561220222,-0.914160575,0.6994502519999999,0.158488177,-0.0422811739,,38.81818181818181,0,L06_NIRS-2019-08-19_007_trial01.txt,243.0
59,89.66399999999999,3.6868658500000002,-0.69975013,-0.13091826010000002,1.15273433,0.265711508,-0.394421042,-0.127816273,-0.607656153,-0.913709514,0.714710151,0.166297529,-0.037081864099999994,,38.81818181818181,0,L06_NIRS-2019-08-19_007_trial01.txt,243.0
60,90.94399999999999,3.6774742700000003,-0.735318503,-0.14511909499999998,1.13370038,0.20483283700000002,-0.386934202,-0.16234463500000001,-0.634430786,-0.8972009460000001,0.747561178,0.177045529,-0.023363670399999998,,38.81818181818181,0,L06_NIRS-2019-08-19_007_trial01.txt,243.0
61,92.22399999999999,3.66572379,-0.767267231,-0.1110515259,1.1532304400000002,0.18102966299999998,-0.346839389,-0.156872182,-0.622980896,-0.892292976,0.7827841529999999,0.197142138,0.00484636284,,38.81818181818181,0,L06_NIRS-2019-08-19_007_trial01.txt,243.0
62,93.504,3.7154874299999996,-0.742509281,-0.019471413809999998,1.1847467899999997,0.2464715,-0.256328931,-0.12018506599999998,-0.5767124809999999,-0.903672527,0.8072156720000001,0.22454786600000004,0.0296498532,,38.81818181818181,0,L06_NIRS-2019-08-19_007_trial01.txt,243.0
63,94.78399999999999,3.8782735500000003,-0.5931817150000002,0.0727248737,1.1952942199999999,0.38619560999999997,-0.07741153428,-0.08302215379999998,-0.5133806379999999,-0.8929314329999999,0.821190227,0.247364511,0.0424645183,,38.81818181818181,0,L06_NIRS-2019-08-19_007_trial01.txt,243.0
64,96.064,4.11500507,-0.346762404,0.13002828500000002,1.1769882600000001,0.538158132,0.1341964986,-0.0658629175,-0.468537329,-0.8750504969999999,0.817339273,0.260950652,0.043009020800000006,,38.81818181818181,0,L06_NIRS-2019-08-19_007_trial01.txt,243.0
65,97.34400000000001,4.400978660000001,-0.0309465726,0.167096576,1.17222255,0.6933381850000001,0.378096251,-0.0834813252,-0.46258871999999995,-0.8521309129999999,0.803354952,0.273296626,0.0372131953,,38.81818181818181,0,L06_NIRS-2019-08-19_007_trial01.txt,243.0
66,98.62400000000001,4.5896965100000005,0.21822083599999997,0.10939476179999999,1.11582541,0.78583756,0.537436155,-0.12904770100000001,-0.497677908,-0.8363618410000001,0.7719032369999999,0.2729193,0.0207867492,,38.81818181818181,0,L06_NIRS-2019-08-19_007_trial01.txt,243.0
67,99.904,4.615142949999999,0.29263498399999993,-0.0500910921,0.9910386209999998,0.796891883,0.548427525,-0.163359866,-0.550978773,-0.8332094529999999,0.7352804350000002,0.27258552700000005,0.001975841905,,38.81818181818181,0,L06_NIRS-2019-08-19_007_trial01.txt,243.0
68,101.184,4.53219037,0.210316707,-0.251808621,0.8550090430000001,0.7615002780000001,0.47938633199999997,-0.17393647500000003,-0.594630991,-0.857478107,0.703222579,0.275840011,-0.005716657370000001,,38.81818181818181,0,L06_NIRS-2019-08-19_007_trial01.txt,243.0
69,102.46400000000001,4.45697232,0.0843104324,-0.39349628600000003,0.7517950769999999,0.7218202380000001,0.40599243300000004,-0.170133843,-0.616680155,-0.9029889850000001,0.6695087399999999,0.278997157,-0.008620726740000001,,38.81818181818181,0,L06_NIRS-2019-08-19_007_trial01.txt,243.0
70,103.744,4.432395840000001,0.013928502879000002,-0.495371157,0.672065481,0.6993839989999999,0.36404340900000004,-0.17658332,-0.624459247,-0.910158909,0.6560573169999999,0.281532063,-0.02058475,,38.81818181818181,0,L06_NIRS-2019-08-19_007_trial01.txt,243.0
71,105.02399999999997,4.406111350000001,-0.01222784285,-0.617018329,0.561703775,0.655790072,0.313297811,-0.201772475,-0.637878244,-0.885626767,0.6669182819999999,0.27516382699999997,-0.035885901799999995,,38.81818181818181,0,L06_NIRS-2019-08-19_007_trial01.txt,243.0
72,106.304,4.31707368,-0.0553707583,-0.788974159,0.420960608,0.5627125470000001,0.23352098200000002,-0.233162398,-0.6573935169999999,-0.8482071249999998,0.69041039,0.265419312,-0.0399991598,,38.81818181818181,0,L06_NIRS-2019-08-19_007_trial01.txt,243.0
73,107.58400000000002,4.165569039999999,-0.164674702,-1.0220529930000002,0.25748994799999997,0.46551278500000004,0.15329393300000002,-0.24686679899999997,-0.6710148869999999,-0.795600024,0.7099928380000002,0.25225068399999995,-0.030752975499999995,,38.81818181818181,0,L06_NIRS-2019-08-19_007_trial01.txt,243.0
74,108.86399999999999,4.08440279,-0.25316433,-1.27814136,0.11332533770000001,0.455042288,0.135660387,-0.23943770000000003,-0.6667327279999999,-0.735105859,0.7344401429999998,0.24558767300000003,-0.022529231500000003,,38.81818181818181,0,L06_NIRS-2019-08-19_007_trial01.txt,243.0
75,110.14399999999998,4.11337394,-0.259040438,-1.4420401100000002,0.0523208016,0.5170379689999999,0.199827282,-0.2361033,-0.653131056,-0.698248735,0.740827419,0.240914016,-0.019330982499999996,,38.81818181818181,0,L06_NIRS-2019-08-19_007_trial01.txt,243.0
76,111.424,4.24201337,-0.1492431218,-1.47590363,0.0671855696,0.6247977,0.317930256,-0.246668609,-0.6387003680000001,-0.7001429490000001,0.7178329649999999,0.236331212,-0.027097065799999997,,38.81818181818181,0,L06_NIRS-2019-08-19_007_trial01.txt,243.0
77,112.70400000000002,4.340300709999999,-0.015100491809999997,-1.5723918700000001,-0.0056748968600000005,0.690390805,0.38762103000000003,-0.27348811399999995,-0.640186015,-0.681759106,0.714251081,0.223710519,-0.047011387,,38.81818181818181,0,L06_NIRS-2019-08-19_007_trial01.txt,243.0
78,113.984,4.32115325,0.04668561050000001,-1.83845576,-0.238286068,0.6650391690000002,0.3706899470000001,-0.301815448,-0.6654269239999999,-0.636293742,0.739428123,0.20252954499999998,-0.06293605079999999,,38.81818181818181,0,L06_NIRS-2019-08-19_007_trial01.txt,243.0
79,115.26399999999998,4.16987535,-0.03381034402,-2.1494473,-0.5073850200000001,0.537635026,0.26389248099999996,-0.325718147,-0.7096689360000001,-0.592078756,0.7780939870000001,0.179293651,-0.0659248313,,38.81818181818181,0,L06_NIRS-2019-08-19_007_trial01.txt,243.0
80,116.54400000000001,4.022088349999999,-0.178754481,-2.40191981,-0.717046577,0.433185751,0.186779901,-0.330204971,-0.7489120490000001,-0.528593987,0.83232982,0.160787323,-0.053469959,,38.81818181818181,0,L06_NIRS-2019-08-19_007_trial01.txt,243.0
81,117.82400000000003,4.04584561,-0.194727902,-2.57641953,-0.847287559,0.4684305200000001,0.26058125099999996,-0.321193718,-0.7524603559999999,-0.4526954880000001,0.9051450470000001,0.144962737,-0.045417977600000006,,38.81818181818181,0,L06_NIRS-2019-08-19_007_trial01.txt,243.0
82,119.104,4.262287510000001,0.001098778099999992,-2.5224106000000006,-0.798946852,0.644812311,0.46621466199999995,-0.316552466,-0.729679769,-0.41031089100000007,0.9534402180000001,0.12857925500000003,-0.05418593180000001,,38.81818181818181,0,L06_NIRS-2019-08-19_007_trial01.txt,243.0
83,120.38399999999999,4.54274905,0.329046308,-2.35232063,-0.668217482,0.8723981779999999,0.699287947,-0.318531096,-0.699381263,-0.41888183,0.9581014760000001,0.11621618599999999,-0.0758646061,,38.81818181818181,0,L06_NIRS-2019-08-19_007_trial01.txt,243.0
84,121.66399999999999,4.72096636,0.6215510340000001,-2.30385502,-0.6377649479999998,1.0407125010000002,0.842441844,-0.317214349,-0.6799652669999998,-0.43114082400000003,0.9527290989999999,0.10211670889999999,-0.10454980630000002,,38.81818181818181,0,L06_NIRS-2019-08-19_007_trial01.txt,243.0
85,122.94399999999999,4.7400322699999995,0.773971924,-2.44546801,-0.7514346900000002,1.0831361099999999,0.8803576549999999,-0.316770498,-0.682697177,-0.457347415,0.9280386140000001,0.0901726719,-0.129161366,,38.81818181818181,0,L06_NIRS-2019-08-19_007_trial01.txt,243.0
86,124.22399999999998,4.6357452,0.7446400910000001,-2.6600854199999997,-0.917402472,1.0184333099999998,0.8325334099999999,-0.334793293,-0.7201944670000001,-0.4989395560000001,0.8890586079999998,0.0793187564,-0.151138088,,38.81818181818181,0,L06_NIRS-2019-08-19_007_trial01.txt,243.0
87,125.50399999999999,4.50346806,0.6104429349999999,-2.87594268,-1.08731471,0.924374194,0.7639179590000001,-0.36788260599999995,-0.777636746,-0.531667504,0.858937715,0.06997404440000002,-0.17312666599999998,,38.81818181818181,0,L06_NIRS-2019-08-19_007_trial01.txt,243.0
88,126.78399999999999,4.397311629999999,0.47065553599999993,-3.1062604800000004,-1.26656585,0.848589037,0.722723685,-0.393229223,-0.8144084569999999,-0.54185791,0.842408996,0.0613673385,-0.197185752,,38.81818181818181,0,L06_NIRS-2019-08-19_007_trial01.txt,243.0
89,128.064,4.30350245,0.35085391999999993,-3.2951484,-1.42592046,0.79387637,0.690492723,-0.405277145,-0.8218084889999998,-0.53617895,0.8321972930000001,0.046799255899999996,-0.223412532,,38.81818181818181,0,L06_NIRS-2019-08-19_007_trial01.txt,243.0
90,129.344,4.1449036,0.185693832,-3.5555832499999993,-1.6409028200000002,0.703106067,0.6029214370000001,-0.399434342,-0.805332588,-0.522001414,0.8214738560000001,0.031520042799999995,-0.24178336899999997,,38.81818181818181,0,L06_NIRS-2019-08-19_007_trial01.txt,243.0
91,130.624,3.97496049,0.005470898850000003,-3.8641005299999995,-1.8779338499999998,0.602214413,0.49449419299999997,-0.37628949,-0.7741592860000001,-0.49139596399999996,0.8194481769999999,0.0225548992,-0.24563577099999997,,38.81818181818181,0,L06_NIRS-2019-08-19_007_trial01.txt,243.0
92,131.904,3.8543765800000003,-0.13783644009999999,-4.124081339999999,-2.0728770999999995,0.510602781,0.40072887099999993,-0.362207289,-0.7478710420000001,-0.45493547800000006,0.830129797,0.0164677975,-0.244553792,,38.81818181818181,0,L06_NIRS-2019-08-19_007_trial01.txt,243.0
93,133.184,3.8284957499999996,-0.19071218099999998,-4.212274130000001,-2.1506468199999995,0.484599444,0.36413815400000005,-0.36994843099999997,-0.742805771,-0.423578737,0.8500043030000001,0.013204732900000002,-0.24353043300000002,,38.81818181818181,0,L06_NIRS-2019-08-19_007_trial01.txt,243.0
94,134.464,3.8824584099999995,-0.1328680797,-4.113251989999999,-2.1043181300000002,0.531014827,0.39254249500000005,-0.39514767500000003,-0.7583193609999999,-0.40224022500000006,0.877498879,0.018393241,-0.24394425000000003,,38.81818181818181,0,L06_NIRS-2019-08-19_007_trial01.txt,243.0
95,135.744,3.94250265,-0.025133901939999998,-3.9619884499999998,-2.02573486,0.5886815479999999,0.4335777760000001,-0.408258908,-0.772779289,-0.38707604600000006,0.904231081,0.027372031799999995,-0.24128797900000004,,38.81818181818181,0,L06_NIRS-2019-08-19_007_trial01.txt,243.0
96,137.02399999999997,3.9505511500000003,0.0490450975,-3.8889966800000004,-1.9480473900000004,0.6292395019999999,0.47061905,-0.39406802199999996,-0.7739963790000001,-0.35379005799999996,0.9333917039999999,0.0369139997,-0.23142540399999997,,38.81818181818181,0,L06_NIRS-2019-08-19_007_trial01.txt,243.0
97,138.304,3.92339627,0.0676430729,-3.8589878200000003,-1.95837568,0.6570023960000001,0.51193888,-0.346085719,-0.749420557,-0.359072874,0.9582073579999999,0.0493617222,-0.211629932,,38.81818181818181,0,L06_NIRS-2019-08-19_007_trial01.txt,243.0
98,139.584,3.95429629,0.09702963219999998,-3.7792185099999998,-1.9916030300000003,0.7073708529999999,0.5947888970000001,-0.28639917899999995,-0.701675699,-0.39582670500000006,0.9801502190000001,0.0576426388,-0.189280567,,38.81818181818181,0,L06_NIRS-2019-08-19_007_trial01.txt,243.0
99,140.86400000000003,4.1075354299999995,0.213130681,-3.5292492799999997,-1.9487909600000002,0.8062889740000001,0.7360485590000001,-0.248938872,-0.653390263,-0.458659965,0.992340894,0.0592514702,-0.18518802100000004,,38.81818181818181,0,L06_NIRS-2019-08-19_007_trial01.txt,243.0
100,142.144,4.37842954,0.457910944,-3.0599638899999997,-1.7791350600000002,0.9738549010000002,0.9368935529999998,-0.24513006,-0.619400795,-0.545027301,0.991043619,0.0562473528,-0.20301165100000002,,38.81818181818181,0,L06_NIRS-2019-08-19_007_trial01.txt,243.0
101,143.424,4.69163505,0.796441507,-2.4940201800000006,-1.53346149,1.1719431100000002,1.1731716300000001,-0.26467909700000003,-0.5964384669999999,-0.6284791009999999,0.9830400440000002,0.0519728758,-0.23206378,,38.81818181818181,0,L06_NIRS-2019-08-19_007_trial01.txt,243.0
102,144.704,4.91670553,1.080973715,-2.1524736,-1.3761446800000001,1.3141025599999998,1.3554974599999998,-0.288904222,-0.5817471120000001,-0.658352789,0.969355427,0.0484210771,-0.26352682499999996,,38.81818181818181,0,L06_NIRS-2019-08-19_007_trial01.txt,243.0
103,145.98399999999998,4.98847881,1.20493232,-2.0108695199999995,-1.3192981000000001,1.36990648,1.4563727700000002,-0.301080501,-0.5794485300000002,-0.669427945,0.9607784270000002,0.04474649160000001,-0.28373420800000004,,38.81818181818181,0,L06_NIRS-2019-08-19_007_trial01.txt,243.0
104,147.26399999999998,4.8857889299999995,1.1190748400000001,-2.07453096,-1.38086651,1.3284351100000003,1.45060349,-0.29637099200000006,-0.589704547,-0.665178593,0.9533621010000001,0.03788667119999999,-0.28913632699999997,,38.81818181818181,0,L06_NIRS-2019-08-19_007_trial01.txt,243.0
105,148.544,4.639432880000001,0.8446936239999999,-2.31283693,-1.5360677099999998,1.20064487,1.3313018300000001,-0.278574601,-0.6002608269999999,-0.640853771,0.947220858,0.0232146635,-0.2810845759999999,,38.81818181818181,0,L06_NIRS-2019-08-19_007_trial01.txt,243.0
106,149.824,4.33752871,0.49814628400000005,-2.5995809,-1.70905755,1.027181931,1.13120937,-0.257274572,-0.604053893,-0.590764595,0.9425875149999999,0.00777421167,-0.268909526,,38.81818181818181,0,L06_NIRS-2019-08-19_007_trial01.txt,243.0
107,151.10399999999998,4.10954117,0.241897954,-2.7427284500000004,-1.7829310499999997,0.9001869639999999,0.9466974550000001,-0.23930557500000002,-0.601367639,-0.534475768,0.9406737169999999,-0.0046765604939999995,-0.25847342,,38.81818181818181,0,L06_NIRS-2019-08-19_007_trial01.txt,243.0
108,152.38399999999996,4.0580719499999995,0.195139924,-2.66665045,-1.7019410000000001,0.876272249,0.875428842,-0.226060418,-0.5829569379999999,-0.47937378299999994,0.9470538820000002,-0.0112779074,-0.25109895400000004,,38.81818181818181,0,L06_NIRS-2019-08-19_007_trial01.txt,243.0
109,153.66400000000002,4.16239452,0.32668406699999997,-2.5122900699999997,-1.5627454699999999,0.9372273499999999,0.916954116,-0.226596267,-0.559726116,-0.418133103,0.958745382,-0.006797385580000001,-0.25055791299999997,,38.81818181818181,0,L06_NIRS-2019-08-19_007_trial01.txt,243.0
110,154.94400000000002,4.32724472,0.525732526,-2.28187036,-1.4478500199999997,1.026951396,1.019341824,-0.242678183,-0.5498736479999999,-0.41787802999999996,0.9705566959999998,0.004600934308999999,-0.251678398,,38.81818181818181,0,L06_NIRS-2019-08-19_007_trial01.txt,243.0
111,156.224,4.41203372,0.628692581,-2.2252112,-1.4356583299999996,1.05067389,1.0785708600000001,-0.26605577,-0.56476008,-0.4268123709999999,0.971537824,0.013519698800000002,-0.24851981100000003,,38.81818181818181,0,L06_NIRS-2019-08-19_007_trial01.txt,243.0
112,157.504,4.34748183,0.540677663,-2.43109364,-1.58306056,0.972906619,1.0368338810000002,-0.28417538099999995,-0.5924655810000001,-0.441137354,0.964832264,0.017740480600000004,-0.236735376,,38.81818181818181,0,L06_NIRS-2019-08-19_007_trial01.txt,243.0
113,158.78400000000002,4.18184121,0.33106413999999995,-2.7736751699999997,-1.8138632099999998,0.8319058269999999,0.9085538609999999,-0.29068817,-0.6183313100000001,-0.447544115,0.9611856229999999,0.020162040900000004,-0.212978749,,38.81818181818181,0,L06_NIRS-2019-08-19_007_trial01.txt,243.0
114,160.064,4.0607501500000005,0.188474809,-2.98870619,-1.96301627,0.741290018,0.80984996,-0.29177913999999994,-0.6391210499999999,-0.449747427,0.9648124599999999,0.021240656099999998,-0.18380718699999998,,38.81818181818181,0,L06_NIRS-2019-08-19_007_trial01.txt,243.0
115,161.344,4.0747870399999995,0.214243835,-2.9635414399999997,-1.96957416,0.7436280550000001,0.8013506100000001,-0.301431068,-0.6575826909999999,-0.46295610300000006,0.9708333820000001,0.0220318326,-0.168854313,,38.81818181818181,0,L06_NIRS-2019-08-19_007_trial01.txt,243.0
116,162.624,4.16172781,0.34175798300000004,-2.81690018,-1.89958563,0.8070121739999999,0.8278943740000001,-0.337184955,-0.6907303629999999,-0.46759374600000003,0.9689338359999999,0.026206107,-0.18310674300000002,,38.81818181818181,0,L06_NIRS-2019-08-19_007_trial01.txt,243.0
117,163.904,4.22057254,0.45993831199999996,-2.72406515,-1.86657949,0.8477006380000001,0.8429325249999999,-0.383098147,-0.7310410280000001,-0.46212038099999997,0.955943367,0.0276991781,-0.205966872,,38.81818181818181,0,L06_NIRS-2019-08-19_007_trial01.txt,243.0
118,165.184,4.1834785,0.4463556079999999,-2.81079775,-1.9276907700000003,0.8214331930000001,0.8190646709999999,-0.40316621399999997,-0.762482373,-0.44079280800000004,0.934504126,0.03027580879999999,-0.21877144200000004,,38.81818181818181,0,L06_NIRS-2019-08-19_007_trial01.txt,243.0
119,166.464,4.077632360000001,0.315111131,-2.9943789499999998,-2.01983955,0.758942053,0.768641497,-0.38580183,-0.7664419820000001,-0.395084081,0.9225446669999998,0.033241184599999994,-0.21435073899999996,,38.81818181818181,0,L06_NIRS-2019-08-19_007_trial01.txt,243.0
120,167.744,3.9561919999999993,0.16535861400000001,-3.1238588,-2.0622571200000004,0.7014860900000001,0.709035067,-0.32939762000000006,-0.7374500289999999,-0.336079461,0.9251289230000002,0.0384016428,-0.182151742,,38.81818181818181,0,L06_NIRS-2019-08-19_007_trial01.txt,243.0
121,169.024,3.90965384,0.136890102,-3.06419438,-1.99788174,0.7035916440000001,0.7067340409999999,-0.24925587499999996,-0.6747971660000001,-0.27707410199999993,0.9395527229999999,0.0448966529,-0.133679565,,38.81818181818181,0,L06_NIRS-2019-08-19_007_trial01.txt,243.0
122,170.304,3.91784792,0.21041994599999997,-2.9031228000000002,-1.9224663099999997,0.7201176460000001,0.72508647,-0.18373914,-0.6088626769999999,-0.24996718900000006,0.9429083370000001,0.043490256399999996,-0.0981250994,,38.81818181818181,0,L06_NIRS-2019-08-19_007_trial01.txt,243.0
123,171.584,3.9136514900000003,0.27690748200000004,-2.8157614100000004,-1.92411307,0.72282062,0.71504897,-0.16213545599999998,-0.5727761539999999,-0.23956099099999997,0.9397141290000001,0.04095544809999999,-0.0984303699,,38.81818181818181,0,L06_NIRS-2019-08-19_007_trial01.txt,243.0
124,172.86400000000003,3.87912685,0.255417963,-2.88660083,-1.9857846899999998,0.6906272059999999,0.70887631,-0.17826444199999997,-0.5703890460000001,-0.24606555400000002,0.9189134279999998,0.038904451699999995,-0.11717556,,38.81818181818181,0,L06_NIRS-2019-08-19_007_trial01.txt,243.0
125,174.144,3.8555650500000005,0.1350508619,-3.03436775,-2.01540967,0.686276335,0.7673614169999999,-0.20504187199999996,-0.5849767619999999,-0.247430801,0.867060517,0.045037284,-0.13986758,,38.81818181818181,0,L06_NIRS-2019-08-19_007_trial01.txt,243.0
126,175.424,3.8804446199999996,0.011970163740000003,-3.0853577800000003,-1.9285854,0.7390065800000001,0.8887349050000001,-0.234159176,-0.5930914759999999,-0.233020455,0.8021695090000002,0.05590008789999999,-0.16484017199999998,,38.81818181818181,0,L06_NIRS-2019-08-19_007_trial01.txt,243.0
127,176.70399999999998,3.91770572,-0.0445145493,-3.00580407,-1.7899932,0.806944266,0.993516157,-0.25323820399999997,-0.581942576,-0.21116411,0.7313112869999999,0.0661160449,-0.183015186,,38.81818181818181,0,L06_NIRS-2019-08-19_007_trial01.txt,243.0
128,177.98399999999998,3.9276085699999994,-0.019118374179999998,-2.8760815400000004,-1.7024306799999998,0.8390800160000002,1.0282909199999999,-0.255502264,-0.55865612,-0.194303531,0.6578427729999999,0.0713269422,-0.18859777500000002,,38.81818181818181,0,L06_NIRS-2019-08-19_007_trial01.txt,243.0
129,179.26399999999998,3.89877842,0.0521918012,-2.80876048,-1.7520329099999998,0.8045800420000001,0.9758747709999998,-0.25485038900000007,-0.5453672,-0.20271730100000002,0.585222331,0.064446722,-0.187470122,,38.81818181818181,0,L06_NIRS-2019-08-19_007_trial01.txt,243.0
130,180.544,3.8491406400000003,0.11249685480000002,-2.8787579800000005,-1.93476165,0.712471955,0.870795283,-0.26945239499999996,-0.5580166440000001,-0.237521192,0.536004205,0.0472106158,-0.189664544,,38.81818181818181,0,L06_NIRS-2019-08-19_007_trial01.txt,243.0
131,181.824,3.8384293799999996,0.131291749,-3.02321417,-2.09007435,0.6329274629999999,0.797025855,-0.30318150599999993,-0.5966950260000001,-0.278078541,0.514402449,0.030412181,-0.19778922399999999,,38.81818181818181,0,L06_NIRS-2019-08-19_007_trial01.txt,243.0
132,183.10399999999998,3.88794988,0.12468420499999999,-3.09337636,-2.1155729699999997,0.626380639,0.79684269,-0.34091327099999996,-0.6371165560000001,-0.30343248,0.49613736300000005,0.019715368599999998,-0.20664608799999998,,38.81818181818181,0,L06_NIRS-2019-08-19_007_trial01.txt,243.0
133,184.38400000000001,3.93886568,0.114859653,-3.0477337999999996,-2.0292608700000003,0.6600480050000002,0.8283164489999999,-0.359445463,-0.644813896,-0.3038897370000001,0.4820306259999999,0.01241625101,-0.21649561,,38.81818181818181,0,L06_NIRS-2019-08-19_007_trial01.txt,243.0
134,185.664,3.90819635,0.07839995550000001,-2.99861591,-1.97070996,0.6636317789999999,0.8159643369999999,-0.343560335,-0.6112613000000001,-0.278498801,0.47213793,0.00768472253,-0.22225025299999998,,38.81818181818181,0,L06_NIRS-2019-08-19_007_trial01.txt,243.0
135,186.944,3.7874448299999997,0.00834735427,-3.0408198200000003,-2.0272609299999997,0.6042401460000001,0.7484387069999999,-0.302540728,-0.5603904359999999,-0.24013743499999998,0.46723706499999995,0.00880766465,-0.214625925,,38.81818181818181,0,L06_NIRS-2019-08-19_007_trial01.txt,243.0
136,188.224,3.64387295,-0.0774165147,-3.18719832,-2.19993592,0.498107612,0.652498368,-0.262783591,-0.517921798,-0.20701442399999997,0.46584812,0.0124995445,-0.20139102299999995,,38.81818181818181,0,L06_NIRS-2019-08-19_007_trial01.txt,243.0
137,189.504,3.5750290199999997,-0.136170795,-3.35579883,-2.3693540299999998,0.407897678,0.5973418039999999,-0.255306048,-0.506573917,-0.18751346200000002,0.47210560199999996,0.010904547519999998,-0.199663932,,38.81818181818181,0,L06_NIRS-2019-08-19_007_trial01.txt,243.0
138,190.78400000000002,3.6536919600000006,-0.11600750140000002,-3.4054665500000008,-2.36928614,0.41789486699999995,0.654573751,-0.29985202599999994,-0.5370017349999999,-0.18361925799999998,0.482161641,0.004369901640000001,-0.21814908400000005,,38.81818181818181,0,L06_NIRS-2019-08-19_007_trial01.txt,243.0
139,192.064,3.86884047,0.01698697143,-3.2566884000000003,-2.1521113599999997,0.550514748,0.8119461720000001,-0.390768312,-0.603037016,-0.20074660200000002,0.46355796099999996,-0.0074519297,-0.2506208,,38.81818181818181,0,L06_NIRS-2019-08-19_007_trial01.txt,243.0
140,193.344,4.10430342,0.214998719,-2.9943930199999995,-1.9016435899999997,0.726730094,0.9838096889999999,-0.488152679,-0.6805239070000001,-0.24424780100000004,0.47976301499999996,-0.029352937999999995,-0.28645025999999996,,38.81818181818181,0,L06_NIRS-2019-08-19_007_trial01.txt,243.0
141,194.624,4.216492089999999,0.35823777200000007,-2.8105255100000006,-1.80051449,0.851874406,1.0791831299999999,-0.5496274050000001,-0.7424411189999999,-0.300609366,0.534598029,-0.05802783909999999,-0.310252795,,38.81818181818181,0,L06_NIRS-2019-08-19_007_trial01.txt,243.0
142,195.904,4.15633281,0.365825387,-2.840934,-1.94070016,0.843776822,1.04720111,-0.554567378,-0.77389366,-0.34663274599999994,0.61828148,-0.08037154180000002,-0.310121343,,38.81818181818181,0,L06_NIRS-2019-08-19_007_trial01.txt,243.0
143,197.184,3.9843868900000006,0.24414049999999995,-3.05719505,-2.25638176,0.723149356,0.9270243450000001,-0.510791644,-0.7600371340000001,-0.35236898399999994,0.7293640060000001,-0.0904500171,-0.294808128,,38.81818181818181,0,L06_NIRS-2019-08-19_007_trial01.txt,243.0
144,198.46399999999997,3.81185987,0.06794321455,-3.31247719,-2.5680661999999996,0.569256277,0.793925213,-0.45234723400000004,-0.7108649670000001,-0.31301667600000005,0.849163223,-0.08978018420000002,-0.28629938699999996,,38.81818181818181,0,L06_NIRS-2019-08-19_007_trial01.txt,243.0
145,199.744,3.7298378,-0.0615916263,-3.46172242,-2.71698256,0.47566353999999994,0.725988213,-0.41712084900000007,-0.6482633780000001,-0.24392553599999997,0.942528246,-0.08143149079999999,-0.289048676,,38.81818181818181,0,L06_NIRS-2019-08-19_007_trial01.txt,243.0
146,201.024,3.7670822700000004,-0.08433450369999998,-3.46174904,-2.6836057099999997,0.47600562999999996,0.746348521,-0.4256711080000001,-0.5966731620000001,-0.17473948100000003,0.9701061789999998,-0.0696279029,-0.298526461,,38.81818181818181,0,L06_NIRS-2019-08-19_007_trial01.txt,243.0
147,202.304,3.88862881,0.006123358769999999,-3.34658251,-2.58816197,0.546824525,0.8365505019999999,-0.470336043,-0.5767817610000001,-0.131846093,0.9859858420000001,-0.06463655539999999,-0.312559598,,38.81818181818181,0,L06_NIRS-2019-08-19_007_trial01.txt,243.0
148,203.584,4.04542307,0.1758738318,-3.18415131,-2.49388758,0.664320908,0.9665957160000002,-0.523485199,-0.5897301779999999,-0.12546832200000002,0.9864284050000001,-0.07125712180000002,-0.32704515999999995,,38.81818181818181,0,L06_NIRS-2019-08-19_007_trial01.txt,243.0
149,204.86400000000003,4.18071271,0.3444347929999999,-3.05069147,-2.42472041,0.7625307539999999,1.0728750699999998,-0.56275292,-0.6280068360000001,-0.149541707,0.964175075,-0.0896345865,-0.3382061049999999,,38.81818181818181,0,L06_NIRS-2019-08-19_007_trial01.txt,243.0
150,206.144,4.2659043500000005,0.452486912,-2.9589996199999997,-2.3558445000000003,0.8314194540000001,1.1514446699999998,-0.579559842,-0.6727213620000001,-0.181731989,0.9367953840000001,-0.119573171,-0.343959632,,38.81818181818181,0,L06_NIRS-2019-08-19_007_trial01.txt,243.0
151,207.42399999999998,4.35038098,0.523796609,-2.8281405800000003,-2.2096445100000004,0.9184970970000002,1.2292983,-0.5778714979999999,-0.707226126,-0.207082917,0.9148461259999999,-0.152697746,-0.35141909200000004,,38.81818181818181,0,L06_NIRS-2019-08-19_007_trial01.txt,243.0
152,208.70400000000004,4.4857462,0.623565184,-2.60110221,-1.9599021300000001,1.046186862,1.31990381,-0.570589385,-0.7264489129999998,-0.231433723,0.8987960129999999,-0.17834451199999998,-0.36685197199999997,,38.81818181818181,0,L06_NIRS-2019-08-19_007_trial01.txt,243.0
153,209.984,4.655107579999999,0.771447109,-2.29450651,-1.66105407,1.2036907799999998,1.43640255,-0.563300488,-0.7259080220000002,-0.25627452500000003,0.885029083,-0.19241975400000003,-0.386165623,,38.81818181818181,0,L06_NIRS-2019-08-19_007_trial01.txt,243.0
154,211.26399999999998,4.8146776000000004,0.954877647,-1.95968645,-1.3784561999999998,1.3641363400000004,1.57645886,-0.551601974,-0.71017926,-0.283999295,0.8680905300000001,-0.19763880700000003,-0.41058169399999994,,38.81818181818181,0,L06_NIRS-2019-08-19_007_trial01.txt,243.0
155,212.544,4.929015869999999,1.1292460399999997,-1.66057874,-1.16852346,1.49524824,1.7171119099999999,-0.534706428,-0.6948854720000001,-0.31768499299999997,0.845206844,-0.200853242,-0.441195973,,38.81818181818181,0,L06_NIRS-2019-08-19_007_trial01.txt,243.0
156,213.82399999999998,4.94415273,1.20301887,-1.5056944399999999,-1.0958300499999996,1.54990527,1.80490776,-0.52041078,-0.69377031,-0.35921063599999997,0.815882034,-0.20051435499999998,-0.469895084,,38.81818181818181,0,L06_NIRS-2019-08-19_007_trial01.txt,243.0
157,215.10399999999998,4.84979999,1.13243772,-1.54556607,-1.18039739,1.51133929,1.83065859,-0.521227833,-0.7165634559999999,-0.398343495,0.786908019,-0.20257370800000002,-0.487061568,,38.81818181818181,0,L06_NIRS-2019-08-19_007_trial01.txt,243.0
158,216.38400000000001,4.73130875,0.9794684639999998,-1.6968317,-1.3436488800000002,1.4416354999999998,1.8399624199999998,-0.553436773,-0.779237579,-0.43509093400000004,0.760862586,-0.20844813699999998,-0.49755518699999995,,38.81818181818181,0,L06_NIRS-2019-08-19_007_trial01.txt,243.0
159,217.664,4.697548830000001,0.881459609,-1.7932233700000002,-1.45154365,1.4110759500000003,1.86881401,-0.6174547749999999,-0.870932285,-0.47163038299999993,0.7395543510000001,-0.21269840599999998,-0.515308087,,38.81818181818181,0,L06_NIRS-2019-08-19_007_trial01.txt,243.0
160,218.94400000000002,4.73179935,0.885976836,-1.7813547799999998,-1.46902922,1.4237650499999996,1.91479018,-0.68734094,-0.9593892199999999,-0.5032119039999999,0.722367451,-0.220375747,-0.5353363659999999,,38.81818181818181,0,L06_NIRS-2019-08-19_007_trial01.txt,243.0
161,220.22400000000002,4.76301913,0.9426206709999999,-1.7075275,-1.43098676,1.45377275,1.95384861,-0.727456474,-1.0143942730000002,-0.528398579,0.7067803269999999,-0.234023818,-0.5517036040000001,,38.81818181818181,0,L06_NIRS-2019-08-19_007_trial01.txt,243.0
162,221.504,4.69078947,0.933586425,-1.69513532,-1.43151365,1.43467801,1.91552605,-0.7226429480000001,-1.0288634,-0.5497000719999999,0.68943913,-0.25316829900000004,-0.555891868,,38.81818181818181,0,L06_NIRS-2019-08-19_007_trial01.txt,243.0
163,222.78399999999996,4.49231633,0.8067580940000001,-1.8236318700000003,-1.53082441,1.34302187,1.7884930799999998,-0.6714140599999998,-1.004599903,-0.558566757,0.679579645,-0.26271655600000005,-0.5310589530000001,,38.81818181818181,0,L06_NIRS-2019-08-19_007_trial01.txt,243.0
164,224.064,4.25478709,0.6115172300000001,-2.0637048699999996,-1.71059725,1.20952973,1.6330217400000002,-0.5972902679999998,-0.9509712499999999,-0.5396293309999999,0.688463497,-0.25960102200000007,-0.484557526,,38.81818181818181,0,L06_NIRS-2019-08-19_007_trial01.txt,243.0
165,225.34399999999997,4.0801368799999995,0.433827831,-2.3247526,-1.9128495300000004,1.0794091199999998,1.50350795,-0.544150046,-0.8936840910000001,-0.498019638,0.711493421,-0.24695514100000002,-0.443563445,,38.81818181818181,0,L06_NIRS-2019-08-19_007_trial01.txt,243.0
166,226.62399999999997,4.008734609999999,0.34477628200000004,-2.5075190099999998,-2.07550989,0.9842255869999998,1.41366994,-0.52995538,-0.8481076639999999,-0.4515179369999999,0.7337761790000001,-0.23128523899999998,-0.4220778230000001,,38.81818181818181,0,L06_NIRS-2019-08-19_007_trial01.txt,243.0
167,227.904,4.04667851,0.38978112600000003,-2.53539073,-2.12244389,0.9717359289999999,1.41832984,-0.5510965459999999,-0.8229404129999999,-0.41298588900000005,0.7516239870000001,-0.222161674,-0.416000716,,38.81818181818181,0,L06_NIRS-2019-08-19_007_trial01.txt,243.0
168,229.18400000000003,4.13331889,0.505386109,-2.4471724999999998,-2.05387875,1.025921538,1.5116559400000003,-0.589714957,-0.827160131,-0.40093260899999994,0.758384261,-0.222352609,-0.419797344,,38.81818181818181,0,L06_NIRS-2019-08-19_007_trial01.txt,243.0
169,230.464,4.16009534,0.5709752760000001,-2.37335562,-1.95935602,1.07900896,1.59688702,-0.612157719,-0.8411622980000001,-0.41409159100000004,0.751964537,-0.22906740599999997,-0.42065712699999996,,38.81818181818181,0,L06_NIRS-2019-08-19_007_trial01.txt,243.0
170,231.744,4.08710164,0.53331584,-2.39686527,-1.9241707399999999,1.07677589,1.6142784600000002,-0.5948562799999999,-0.844833993,-0.431808002,0.73934841,-0.23411292100000006,-0.40536092300000004,,38.81818181818181,0,L06_NIRS-2019-08-19_007_trial01.txt,243.0
171,233.02400000000003,3.9941435600000004,0.45547197100000003,-2.4752940499999996,-1.9637924499999997,1.0323155299999998,1.5728782200000002,-0.547272177,-0.823183079,-0.4262105020000001,0.7402119229999999,-0.235920629,-0.382501116,,38.81818181818181,0,L06_NIRS-2019-08-19_007_trial01.txt,243.0
172,234.30400000000003,3.92848647,0.39826916999999995,-2.49840673,-1.99871421,0.9594575940000001,1.4995677600000001,-0.49899761499999995,-0.7776279789999998,-0.387955583,0.7455281119999999,-0.23072917700000004,-0.36679221,,38.81818181818181,0,L06_NIRS-2019-08-19_007_trial01.txt,243.0
173,235.58399999999997,3.95648221,0.43757885099999994,-2.49738766,-2.04333812,0.937638386,1.4900432300000002,-0.4723866900000001,-0.7246829009999999,-0.35724885900000003,0.7387562719999999,-0.221662827,-0.367178177,,38.81818181818181,0,L06_NIRS-2019-08-19_007_trial01.txt,243.0
174,236.86400000000003,4.140636089999999,0.640304965,-2.45588352,-2.05757087,1.036683196,1.62975573,-0.48490887899999996,-0.6871704590000001,-0.332997751,0.733001103,-0.211708023,-0.38581166400000005,,38.81818181818181,0,L06_NIRS-2019-08-19_007_trial01.txt,243.0
175,238.14399999999995,4.4281881599999995,0.9532914479999999,-2.3645515199999996,-1.98963188,1.22999844,1.8868391899999999,-0.525906588,-0.674108057,-0.327994456,0.724137694,-0.20325053199999998,-0.41402577100000004,,38.81818181818181,0,L06_NIRS-2019-08-19_007_trial01.txt,243.0
176,239.42399999999998,4.68457124,1.2341189700000001,-2.33554408,-1.9260760300000002,1.4247411399999999,2.13196359,-0.5668386940000001,-0.680876281,-0.3485197,0.702145757,-0.200965435,-0.44071809,,38.81818181818181,0,L06_NIRS-2019-08-19_007_trial01.txt,243.0
177,240.70400000000004,4.79598637,1.36261063,-2.46764898,-1.98414604,1.5241936600000001,2.24883614,-0.5871617789999999,-0.700000427,-0.38409540100000006,0.6683709770000001,-0.20753385400000002,-0.456375927,,38.81818181818181,0,L06_NIRS-2019-08-19_007_trial01.txt,243.0
178,241.98399999999998,4.74606139,1.3172403300000002,-2.7457270000000005,-2.19583007,1.48514862,2.2098995999999995,-0.5875453839999999,-0.720604306,-0.4111191450000001,0.639402849,-0.222575181,-0.46090584199999995,,38.81818181818181,0,L06_NIRS-2019-08-19_007_trial01.txt,243.0
179,243.26400000000004,4.578632969999999,1.1362517,-3.05742814,-2.4614455399999997,1.34116067,2.06921361,-0.587692106,-0.7366588070000001,-0.4104175199999999,0.625502075,-0.24034108999999998,-0.45772978799999997,,38.81818181818181,0,L06_NIRS-2019-08-19_007_trial01.txt,243.0
180,244.544,4.4363001099999995,0.94728967,-3.2939507499999996,-2.66325761,1.22542658,1.96737674,-0.5978467249999999,-0.741355564,-0.397293291,0.6189071329999999,-0.250551886,-0.45655309000000005,,38.81818181818181,0,L06_NIRS-2019-08-19_007_trial01.txt,243.0
181,245.824,4.441765720000001,0.8876439680000001,-3.36772202,-2.7465170199999998,1.1984018200000002,1.9638375200000002,-0.6164670350000001,-0.724147776,-0.35361796500000003,0.640507307,-0.24705286,-0.463924864,,38.81818181818181,0,L06_NIRS-2019-08-19_007_trial01.txt,243.0
182,247.10399999999998,4.590011979999999,0.983461795,-3.2328555700000003,-2.67379038,1.2476238800000001,2.04002034,-0.6448028669999999,-0.6921985019999999,-0.30405326,0.669594574,-0.236356703,-0.4771808490000001,,38.81818181818181,0,L06_NIRS-2019-08-19_007_trial01.txt,243.0
183,248.38400000000001,4.7901362999999995,1.16656968,-3.01004228,-2.55276966,1.3277315600000001,2.13918999,-0.6818088849999999,-0.670106653,-0.27704998399999997,0.686454475,-0.228358264,-0.4927058670000001,,38.81818181818181,0,L06_NIRS-2019-08-19_007_trial01.txt,243.0
184,249.66399999999993,4.89047333,1.29721154,-2.89664545,-2.53637508,1.3480078500000001,2.1665879599999998,-0.71512906,-0.6684009540000001,-0.28205055500000004,0.683360385,-0.23017250100000003,-0.500717771,,38.81818181818181,0,L06_NIRS-2019-08-19_007_trial01.txt,243.0
185,250.94399999999996,4.80795224,1.2631476400000001,-3.0407129900000003,-2.7183799399999997,1.25327314,2.08273236,-0.732479974,-0.683924759,-0.303312991,0.6702018409999999,-0.23939732500000002,-0.49461563899999994,,38.81818181818181,0,L06_NIRS-2019-08-19_007_trial01.txt,243.0
186,252.22400000000002,4.55379157,1.0169154130000002,-3.4630690100000003,-3.0803492200000004,1.056869168,1.8911927599999998,-0.7395935699999999,-0.710166711,-0.315680011,0.6593637459999999,-0.25391818,-0.47420846799999994,,38.81818181818181,0,L06_NIRS-2019-08-19_007_trial01.txt,243.0
187,253.504,4.27056604,0.683644675,-3.95212065,-3.44596704,0.861634106,1.67916853,-0.733665201,-0.721857025,-0.29536340000000005,0.6679019230000001,-0.25788313599999996,-0.44475953300000004,,38.81818181818181,0,L06_NIRS-2019-08-19_007_trial01.txt,243.0
188,254.78400000000002,4.09088481,0.43486176299999996,-4.262824799999999,-3.6558717199999995,0.7517263100000001,1.5328404800000002,-0.717490862,-0.698128229,-0.239202126,0.703596987,-0.24102328900000006,-0.416156799,,38.81818181818181,0,L06_NIRS-2019-08-19_007_trial01.txt,243.0
189,256.06399999999996,4.10861898,0.408354629,-4.26856589,-3.62737568,0.777102069,1.5210569900000002,-0.698664275,-0.636070463,-0.16624569799999997,0.7597948409999999,-0.207299809,-0.39913427799999995,,38.81818181818181,0,L06_NIRS-2019-08-19_007_trial01.txt,243.0
190,257.344,4.325700759999999,0.606517092,-3.98947992,-3.38407313,0.935744781,1.65825697,-0.6867841079999999,-0.574374745,-0.11231030630000001,0.8065561320000001,-0.16580309099999996,-0.397157902,,38.81818181818181,0,L06_NIRS-2019-08-19_007_trial01.txt,243.0
191,258.432,4.532629257142857,0.8545704142857142,-3.630260242857143,-3.097545671428571,1.1282757142857143,1.7842673714285715,-0.6941829128571427,-0.54617254,-0.08450282857142857,0.8425060742857141,-0.14320057714285714,-0.4143857985714286,,38.81818181818181,0,L06_NIRS-2019-08-19_007_trial01.txt,243.0
