,time,S3_D4_HbO,S3_D3_HbO,S2_D3_HbO,S2_D2_HbO,S1_D2_HbO,S1_D1_HbO,S3_D4_HbR,S3_D3_HbR,S2_D3_HbR,S2_D2_HbR,S1_D2_HbR,S1_D1_HbR,Var14,score,labelnum,filename,total_time
0,977.7280000000001,12.9425609,-2.1448209,-2.50030219,1.7249098200000001,-1.92712537,4.60955457,10.7339546,-0.4645157639999999,1.66750209,-0.34486154300000005,2.93250025,0.10699153400000001,,195.8181818181818,1,L06_NIRS-2019-08-17_005_trial09.txt,86.0
1,979.0080000000002,13.079118,-2.0098935200000003,-2.39102226,1.7052379300000002,-1.93222877,4.63486073,10.796163399999998,-0.41187016400000004,1.7721457600000001,-0.29196912399999997,2.97082952,0.124206682,,195.8181818181818,1,L06_NIRS-2019-08-17_005_trial09.txt,86.0
2,980.2880000000001,13.319134400000001,-1.7650860799999997,-2.1183953200000003,1.7814446699999997,-1.8300002599999998,4.74663205,10.8216374,-0.355938588,1.8564534899999998,-0.258293631,2.9972608500000004,0.141130348,,195.8181818181818,1,L06_NIRS-2019-08-17_005_trial09.txt,86.0
3,981.568,13.5288429,-1.55532146,-1.85392385,1.8953507699999999,-1.6899662100000001,4.869677759999999,10.8030079,-0.329746782,1.88948523,-0.257572602,3.0025609699999998,0.149317783,,195.8181818181818,1,L06_NIRS-2019-08-17_005_trial09.txt,86.0
4,982.848,13.561116899999998,-1.52329633,-1.7491849700000004,1.96316417,-1.6037408800000001,4.91862395,10.7722144,-0.337912422,1.8748731800000003,-0.287709659,2.9887986499999997,0.15036287300000004,,195.8181818181818,1,L06_NIRS-2019-08-17_005_trial09.txt,86.0
5,984.128,13.483379199999998,-1.60549447,-1.7629566800000003,1.99192684,-1.56914793,4.92890523,10.766364000000001,-0.361868303,1.84579354,-0.33406807000000005,2.96402575,0.147787932,,195.8181818181818,1,L06_NIRS-2019-08-17_005_trial09.txt,86.0
6,985.4080000000001,13.386157799999998,-1.68412096,-1.7908929900000001,1.99115118,-1.56904703,4.92072052,10.782880500000001,-0.38164418,1.8170777699999998,-0.38134729100000003,2.9365027799999996,0.14587032100000002,,195.8181818181818,1,L06_NIRS-2019-08-17_005_trial09.txt,86.0
7,986.6879999999999,13.371022599999998,-1.6762593,-1.7585449599999996,1.9951927900000002,-1.56911047,4.932507289999999,10.8180187,-0.38660926599999995,1.79593326,-0.426050998,2.9131208099999997,0.14349142999999998,,195.8181818181818,1,L06_NIRS-2019-08-17_005_trial09.txt,86.0
8,987.9679999999998,13.4885402,-1.5485908500000003,-1.6180172300000002,2.04743236,-1.5163407100000001,5.00936362,10.845408299999999,-0.37306984600000004,1.7907097300000003,-0.458828487,2.8964148099999996,0.14359898,,195.8181818181818,1,L06_NIRS-2019-08-17_005_trial09.txt,86.0
9,989.2480000000002,13.667764299999998,-1.3864309,-1.4239361000000001,2.1412555600000003,-1.4186325600000003,5.1237286300000005,10.842481699999999,-0.35727444300000005,1.7926897899999996,-0.488144678,2.8814319500000005,0.14041980999999998,,195.8181818181818,1,L06_NIRS-2019-08-17_005_trial09.txt,86.0
10,990.5279999999999,13.822060399999998,-1.28507114,-1.28056829,2.24983744,-1.3132056699999999,5.227232580000001,10.8098124,-0.356472926,1.7869443600000001,-0.516950394,2.86534699,0.13206059899999997,,195.8181818181818,1,L06_NIRS-2019-08-17_005_trial09.txt,86.0
11,991.808,13.8519803,-1.3156548300000002,-1.26888545,2.30963364,-1.2668053499999998,5.25981421,10.7617668,-0.378698249,1.7654287699999998,-0.54384627,2.85146296,0.12091858100000001,,195.8181818181818,1,L06_NIRS-2019-08-17_005_trial09.txt,86.0
12,993.0880000000001,13.8374626,-1.37922103,-1.28722735,2.36671883,-1.2497798100000002,5.27021912,10.7335318,-0.4051123210000001,1.7435112199999998,-0.564961395,2.8429550199999998,0.11279422000000001,,195.8181818181818,1,L06_NIRS-2019-08-17_005_trial09.txt,86.0
13,994.368,13.879628199999999,-1.3511209599999998,-1.2148166900000001,2.45881943,-1.22649965,5.30503459,10.7297836,-0.414735752,1.73055014,-0.5766389179999999,2.84028512,0.104766706,,195.8181818181818,1,L06_NIRS-2019-08-17_005_trial09.txt,86.0
14,995.6480000000001,14.0663254,-1.16530659,-0.9917634540000002,2.6184707099999995,-1.16502887,5.391017240000001,10.7458007,-0.40243642,1.7304882200000002,-0.5884220919999998,2.83908448,0.09570698589999999,,195.8181818181818,1,L06_NIRS-2019-08-17_005_trial09.txt,86.0
15,996.9280000000001,14.415921800000001,-0.8159085429999999,-0.5901051670000002,2.8596334700000003,-1.036563497,5.54432915,10.757806,-0.37424008400000003,1.7413182300000003,-0.6056172249999999,2.8334740299999996,0.08649716829999998,,195.8181818181818,1,L06_NIRS-2019-08-17_005_trial09.txt,86.0
16,998.2079999999999,14.8232273,-0.419723431,-0.11565152824,3.13656209,-0.866812678,5.729058950000001,10.7455855,-0.35063355099999993,1.7430343000000001,-0.637520168,2.81977932,0.07236323999999998,,195.8181818181818,1,L06_NIRS-2019-08-17_005_trial09.txt,86.0
17,999.488,15.141227599999999,-0.13109755159999997,0.259012432,3.3592913500000003,-0.7132842279999999,5.88371316,10.708752200000001,-0.350123713,1.7235256499999998,-0.680327448,2.79991941,0.051363720099999996,,195.8181818181818,1,L06_NIRS-2019-08-17_005_trial09.txt,86.0
18,1000.768,15.210036500000001,-0.08444881779999999,0.383851107,3.43083542,-0.6535672499999999,5.940136600000001,10.653091700000001,-0.38579893300000007,1.6741791400000001,-0.7257955959999999,2.77801709,0.027367908799999997,,195.8181818181818,1,L06_NIRS-2019-08-17_005_trial09.txt,86.0
19,1002.048,15.065128399999997,-0.23672436000000002,0.297400137,3.387949,-0.6810434550000001,5.917588820000001,10.6064869,-0.4441414229999999,1.6081233799999999,-0.766288745,2.7579601500000006,0.003413914020000001,,195.8181818181818,1,L06_NIRS-2019-08-17_005_trial09.txt,86.0
20,1003.3280000000001,14.840533399999998,-0.444945449,0.12023330179999998,3.2919406499999995,-0.757293055,5.856717229999999,10.5921312,-0.493688215,1.5514744099999997,-0.7926176559999999,2.74442956,-0.01706364303,,195.8181818181818,1,L06_NIRS-2019-08-17_005_trial09.txt,86.0
21,1004.608,14.6393083,-0.610166485,-0.06629637231999999,3.1835491800000004,-0.854707777,5.77788944,10.6125526,-0.518571662,1.52003833,-0.808603462,2.7363317799999995,-0.0342793063,,195.8181818181818,1,L06_NIRS-2019-08-17_005_trial09.txt,86.0
22,1005.8879999999999,14.6072194,-0.6137202399999999,-0.11304672549999999,3.1577612499999996,-0.882800724,5.765585,10.653460900000002,-0.512908171,1.5231889099999998,-0.812034497,2.73223268,-0.0449114396,,195.8181818181818,1,L06_NIRS-2019-08-17_005_trial09.txt,86.0
23,1007.168,14.731158100000002,-0.48684414700000006,-0.01429350033,3.2279882900000003,-0.824698274,5.82778191,10.6744502,-0.493932737,1.5314635099999998,-0.815113541,2.7252270199999997,-0.05737281129999999,,195.8181818181818,1,L06_NIRS-2019-08-17_005_trial09.txt,86.0
24,1008.448,14.898267500000003,-0.34624983500000006,0.1309065239,3.3362955800000003,-0.7239577549999999,5.914351309999999,10.6650654,-0.48069837899999995,1.52789395,-0.8254911899999999,2.71271105,-0.074482745,,195.8181818181818,1,L06_NIRS-2019-08-17_005_trial09.txt,86.0
25,1009.7280000000001,14.914408600000002,-0.353532271,0.1431244659,3.35599586,-0.687037454,5.9348095700000005,10.627265900000001,-0.491713862,1.5060147199999998,-0.8401058600000001,2.6964699599999995,-0.095186455,,195.8181818181818,1,L06_NIRS-2019-08-17_005_trial09.txt,86.0
26,1011.0080000000002,14.728202600000003,-0.546014848,-0.042875647270000004,3.2503189800000003,-0.7600392140000001,5.865237370000001,10.589279999999999,-0.5269455580000001,1.4752794699999998,-0.8493716579999999,2.6827917000000006,-0.116919937,,195.8181818181818,1,L06_NIRS-2019-08-17_005_trial09.txt,86.0
27,1012.2880000000001,14.446599,-0.8066221499999999,-0.3291623549999999,3.0716835099999997,-0.902044593,5.737296290000001,10.5770599,-0.5632325380000001,1.4558647499999997,-0.8392348860000001,2.6795458500000002,-0.13219308400000002,,195.8181818181818,1,L06_NIRS-2019-08-17_005_trial09.txt,86.0
28,1013.568,14.222136,-0.99998149,-0.57698063,2.9058332799999995,-1.03975427,5.61089388,10.591865199999999,-0.5827115380000001,1.45364368,-0.8159165140000001,2.68514512,-0.13972881999999998,,195.8181818181818,1,L06_NIRS-2019-08-17_005_trial09.txt,86.0
29,1014.848,14.1873749,-1.0229955150000003,-0.656372055,2.842195139999999,-1.08302061,5.56945342,10.5995499,-0.5825886629999999,1.45519414,-0.7944934089999999,2.68659179,-0.146694269,,195.8181818181818,1,L06_NIRS-2019-08-17_005_trial09.txt,86.0
30,1016.128,14.300114200000001,-0.9356353829999999,-0.598608824,2.86252765,-1.0457570299999999,5.5925408800000005,10.567144500000001,-0.5808935049999999,1.4333100399999998,-0.796605229,2.6685208699999996,-0.16148709,,195.8181818181818,1,L06_NIRS-2019-08-17_005_trial09.txt,86.0
31,1017.4080000000001,14.462742800000001,-0.8423843870000001,-0.501771054,2.9310381000000003,-0.9689601,5.657429649999999,10.501773700000001,-0.590632252,1.3840203599999998,-0.826142374,2.6317239700000004,-0.185874077,,195.8181818181818,1,L06_NIRS-2019-08-17_005_trial09.txt,86.0
32,1018.6879999999999,14.538154299999997,-0.846057615,-0.504797422,2.9622198700000006,-0.9308014760000001,5.70190341,10.4240877,-0.614851582,1.3249470600000004,-0.871920596,2.58690352,-0.215872365,,195.8181818181818,1,L06_NIRS-2019-08-17_005_trial09.txt,86.0
33,1019.9679999999998,14.501166900000001,-0.932422573,-0.620070513,2.92424749,-0.954280912,5.7002586,10.372448799999999,-0.6426215949999999,1.28554927,-0.9132393950000001,2.5477317200000003,-0.241567649,,195.8181818181818,1,L06_NIRS-2019-08-17_005_trial09.txt,86.0
34,1021.2480000000002,14.405304800000001,-1.017096969,-0.762764037,2.8212417200000006,-1.026252455,5.64910505,10.371957600000002,-0.6569347299999999,1.28072952,-0.929636267,2.52645713,-0.25689107,,195.8181818181818,1,L06_NIRS-2019-08-17_005_trial09.txt,86.0
35,1022.5279999999999,14.337953200000001,-1.0273936600000002,-0.8367883450000001,2.70716246,-1.0972439,5.5869562,10.415037,-0.6519666940000001,1.3054948400000002,-0.9211178160000001,2.5263654099999995,-0.25972723799999997,,195.8181818181818,1,L06_NIRS-2019-08-17_005_trial09.txt,86.0
36,1023.808,14.3542284,-0.9559645010000001,-0.8089277769999998,2.6319208699999996,-1.12326759,5.55838865,10.4577476,-0.63563961,1.33262971,-0.9035175769999999,2.53383998,-0.25926744199999996,,195.8181818181818,1,L06_NIRS-2019-08-17_005_trial09.txt,86.0
37,1025.0880000000002,14.427138600000001,-0.8748182929999999,-0.735370321,2.60966432,-1.10582489,5.57083539,10.475242300000001,-0.62504166,1.3346134299999999,-0.894057128,2.53137673,-0.25966105300000003,,195.8181818181818,1,L06_NIRS-2019-08-17_005_trial09.txt,86.0
38,1026.368,14.498087799999999,-0.8532061729999999,-0.687932082,2.6258140199999995,-1.0671626,5.623610569999999,10.462122500000001,-0.627317379,1.31042372,-0.8903851699999998,2.51876717,-0.269022382,,195.8181818181818,1,L06_NIRS-2019-08-17_005_trial09.txt,86.0
39,1027.648,14.507215299999999,-0.9139989020000001,-0.723151063,2.6316276700000003,-1.05238181,5.66923405,10.4322017,-0.638171292,1.28039013,-0.8895001059999998,2.5047224800000003,-0.284205921,,195.8181818181818,1,L06_NIRS-2019-08-17_005_trial09.txt,86.0
40,1028.9280000000003,14.466327699999997,-0.9977583010000002,-0.804897845,2.60048139,-1.0670391599999998,5.693719530000001,10.4135851,-0.6446824740000001,1.2768768400000001,-0.8773580159999999,2.500109320000001,-0.29886516800000007,,195.8181818181818,1,L06_NIRS-2019-08-17_005_trial09.txt,86.0
41,1030.208,14.389479799999998,-1.0656864,-0.897033281,2.51825508,-1.11461963,5.684148810000002,10.4199353,-0.6422465650000001,1.29872885,-0.8497640399999998,2.5061671800000003,-0.310225,,195.8181818181818,1,L06_NIRS-2019-08-17_005_trial09.txt,86.0
42,1031.488,14.333661799999998,-1.08952763,-0.9555437710000001,2.4259191400000004,-1.16000286,5.668363650000001,10.445379400000002,-0.631810923,1.3352937299999998,-0.8107499490000001,2.5220572000000003,-0.318074919,,195.8181818181818,1,L06_NIRS-2019-08-17_005_trial09.txt,86.0
43,1032.768,14.327471999999997,-1.0846439300000001,-0.9791605320000001,2.3641075700000003,-1.1771360400000002,5.66519154,10.464171100000002,-0.619126038,1.36972868,-0.7712134,2.538389,-0.32549411999999994,,195.8181818181818,1,L06_NIRS-2019-08-17_005_trial09.txt,86.0
44,1034.048,14.3736302,-1.0736165,-0.982968056,2.36392999,-1.15153082,5.68196499,10.473229700000001,-0.608245936,1.3946845700000001,-0.7420135669999999,2.5463071499999996,-0.329446,,195.8181818181818,1,L06_NIRS-2019-08-17_005_trial09.txt,86.0
45,1035.328,14.404203,-1.0960185699999998,-1.0137607,2.3807602999999995,-1.1189093600000002,5.68784001,10.4702281,-0.6012400699999999,1.40861967,-0.7194601260000001,2.54548292,-0.334937627,,195.8181818181818,1,L06_NIRS-2019-08-17_005_trial09.txt,86.0
46,1036.608,14.3944547,-1.15609867,-1.0962231999999998,2.36942899,-1.11381799,5.662192129999999,10.4640412,-0.598938696,1.41665106,-0.7042078509999999,2.54040246,-0.342213352,,195.8181818181818,1,L06_NIRS-2019-08-17_005_trial09.txt,86.0
47,1037.888,14.422056600000001,-1.16855049,-1.1290437500000001,2.3690475199999996,-1.10177588,5.64909327,10.4566953,-0.5945706269999999,1.4295905099999997,-0.6875263730000001,2.53743233,-0.348304814,,195.8181818181818,1,L06_NIRS-2019-08-17_005_trial09.txt,86.0
48,1039.1680000000001,14.550642700000001,-1.0699107220000001,-1.023618198,2.4398760599999996,-1.0480924999999999,5.6902557,10.450286000000002,-0.5830199950000001,1.4352615600000003,-0.6797565489999999,2.52991879,-0.3541463199999999,,195.8181818181818,1,L06_NIRS-2019-08-17_005_trial09.txt,86.0
49,1040.448,14.7814711,-0.8665991600000001,-0.783201415,2.5919977100000002,-0.9478987010000001,5.790467860000001,10.451736499999999,-0.564647498,1.42867839,-0.6834987459999999,2.51965622,-0.36112171600000004,,195.8181818181818,1,L06_NIRS-2019-08-17_005_trial09.txt,86.0
50,1041.728,14.9892528,-0.668844797,-0.5334845069999999,2.7402147400000003,-0.861331027,5.8788513799999995,10.458534400000001,-0.547518493,1.4134292999999998,-0.6969700209999999,2.5113315,-0.36852030099999994,,195.8181818181818,1,L06_NIRS-2019-08-17_005_trial09.txt,86.0
51,1043.0080000000003,15.071560400000001,-0.571516663,-0.39807197699999997,2.8093188299999996,-0.8272078989999999,5.908946019999999,10.482504700000002,-0.534581839,1.4092726800000002,-0.706826634,2.5130110799999996,-0.36941758,,195.8181818181818,1,L06_NIRS-2019-08-17_005_trial09.txt,86.0
52,1044.288,14.988714100000001,-0.613423252,-0.441495531,2.75508397,-0.8617187229999999,5.878121599999999,10.520710300000001,-0.526289438,1.4290825399999998,-0.6938302299999999,2.52728113,-0.365173311,,195.8181818181818,1,L06_NIRS-2019-08-17_005_trial09.txt,86.0
53,1045.568,14.8079559,-0.756997947,-0.6287900329999999,2.6088450199999995,-0.9385860880000001,5.80962826,10.5536426,-0.525290805,1.46654097,-0.660166308,2.5496936499999996,-0.35468082700000003,,195.8181818181818,1,L06_NIRS-2019-08-17_005_trial09.txt,86.0
54,1046.848,14.645657300000002,-0.899839061,-0.822235938,2.46264488,-1.004294896,5.740906539999999,10.5563538,-0.528786184,1.5051681799999999,-0.618249107,2.57149248,-0.34229824600000003,,195.8181818181818,1,L06_NIRS-2019-08-17_005_trial09.txt,86.0
55,1048.1280000000002,14.599722499999999,-0.953996676,-0.9059161809999999,2.405277129999999,-1.0165724600000001,5.70760912,10.536231599999999,-0.530590994,1.5251408,-0.59190205,2.5806864299999996,-0.333378786,,195.8181818181818,1,L06_NIRS-2019-08-17_005_trial09.txt,86.0
56,1049.408,14.673859299999998,-0.9101317080000001,-0.8698521159999999,2.4499595,-0.9691773119999999,5.7205199,10.508260700000001,-0.529444415,1.51765791,-0.5896084669999999,2.57602583,-0.32657817299999997,,195.8181818181818,1,L06_NIRS-2019-08-17_005_trial09.txt,86.0
57,1050.688,14.7538175,-0.860635658,-0.8261888579999999,2.5123505400000004,-0.9242625229999998,5.7196122,10.484558400000001,-0.531057393,1.4855446800000003,-0.610342242,2.5636192600000003,-0.317214969,,195.8181818181818,1,L06_NIRS-2019-08-17_005_trial09.txt,86.0
58,1051.9679999999998,14.7654583,-0.8600618250000001,-0.8327363459999999,2.53560029,-0.915570542,5.68993186,10.478306200000002,-0.534429666,1.45354011,-0.6373681330000001,2.55402686,-0.305024662,,195.8181818181818,1,L06_NIRS-2019-08-17_005_trial09.txt,86.0
59,1053.248,14.727832400000002,-0.8783569370000001,-0.859043729,2.5331545799999997,-0.936382974,5.65012724,10.4978421,-0.532314422,1.4416806599999998,-0.655651451,2.5523789299999997,-0.291557258,,195.8181818181818,1,L06_NIRS-2019-08-17_005_trial09.txt,86.0
60,1054.528,14.760667899999998,-0.8147287179999999,-0.7976486939999999,2.57349967,-0.934679389,5.6456592400000005,10.5443914,-0.513562457,1.45955443,-0.661477571,2.56144723,-0.269805472,,195.8181818181818,1,L06_NIRS-2019-08-17_005_trial09.txt,86.0
61,1055.808,14.874058,-0.6575580060000001,-0.6318190199999999,2.6568180999999997,-0.911286099,5.662725,10.597566299999999,-0.4821969019999999,1.4950261399999998,-0.657407867,2.58003887,-0.24371362900000001,,195.8181818181818,1,L06_NIRS-2019-08-17_005_trial09.txt,86.0
62,1057.0880000000002,15.073586599999999,-0.419275696,-0.375474336,2.78779233,-0.8585295620000002,5.70642949,10.6425971,-0.44917959099999993,1.53128914,-0.6557942540000001,2.59867954,-0.220231237,,195.8181818181818,1,L06_NIRS-2019-08-17_005_trial09.txt,86.0
63,1058.368,15.3838792,-0.0995111416,-0.035432748699999995,2.99059546,-0.749243199,5.80766266,10.666341,-0.4206364090000001,1.5542941000000001,-0.663582603,2.6103913299999997,-0.20045828999999998,,195.8181818181818,1,L06_NIRS-2019-08-17_005_trial09.txt,86.0
64,1059.648,15.779492800000003,0.26906959399999997,0.36544542199999996,3.26351383,-0.584048806,5.96295029,10.656681500000001,-0.40137238599999997,1.5537080199999997,-0.681942263,2.61496266,-0.18270648799999994,,195.8181818181818,1,L06_NIRS-2019-08-17_005_trial09.txt,86.0
65,1060.9280000000003,16.0927791,0.548608002,0.7098972509999999,3.5133848299999997,-0.43637743999999995,6.09260436,10.609637599999997,-0.40480430500000003,1.51699867,-0.706991553,2.61709141,-0.17164637599999996,,195.8181818181818,1,L06_NIRS-2019-08-17_005_trial09.txt,86.0
66,1061.632,16.187445,0.60192035,0.83493058,3.6071263,-0.39032696,6.1285414,10.578326,-0.42355445,1.495777,-0.72319026,2.6174295,-0.16892145,,195.8181818181818,1,L06_NIRS-2019-08-17_005_trial09.txt,86.0
