,time,S3_D4_HbO,S3_D3_HbO,S2_D3_HbO,S2_D2_HbO,S1_D2_HbO,S1_D1_HbO,S3_D4_HbR,S3_D3_HbR,S2_D3_HbR,S2_D2_HbR,S1_D2_HbR,S1_D1_HbR,Var14,score,labelnum,filename,total_time
0,535.616,4.34827355,4.38180163,10.0089225,7.4523110400000006,-0.6513778330000001,-1.02838968,4.12356857,3.54523109,5.1559644,1.33861579,0.21791043599999999,0.0834534255,,183.72727272727272,1,L06_NIRS-2019-08-14_003_trial05.txt,89.0
1,536.896,4.40537188,4.4881749,9.98207608,7.4452965,-0.6333637089999999,-0.994828324,4.09990272,3.5260579,5.11609134,1.3763890399999998,0.241082678,0.07893255229999999,,183.72727272727272,1,L06_NIRS-2019-08-14_003_trial05.txt,89.0
2,538.176,4.50342142,4.57607649,9.955658029999999,7.507832439999999,-0.5672853800000001,-0.9394619649999999,4.077970130000001,3.50124661,5.05451577,1.3998068500000003,0.255364363,0.0791766415,,183.72727272727272,1,L06_NIRS-2019-08-14_003_trial05.txt,89.0
3,539.456,4.6371883799999996,4.652325,9.984243869999998,7.64112019,-0.456946451,-0.8735494510000003,4.06350762,3.4797816900000003,4.988805460000001,1.40589307,0.257913191,0.08844387120000001,,183.72727272727272,1,L06_NIRS-2019-08-14_003_trial05.txt,89.0
4,540.736,4.74882667,4.70518683,10.061973999999998,7.7870927199999995,-0.33872106199999996,-0.820538193,4.059928360000001,3.4697251000000002,4.9389867899999995,1.40108086,0.25469794500000004,0.10626293680000001,,183.72727272727272,1,L06_NIRS-2019-08-14_003_trial05.txt,89.0
5,542.016,4.7910928,4.70644498,10.159047600000001,7.87945055,-0.27488346799999996,-0.8045326859999999,4.0733012,3.48319911,4.95269504,1.40238282,0.25942042700000006,0.133089587,,183.72727272727272,1,L06_NIRS-2019-08-14_003_trial05.txt,89.0
6,543.296,4.77448641,4.665284390000001,10.2216222,7.8942785,-0.283565471,-0.828381083,4.1066804999999995,3.52306544,5.035439129999999,1.4285779299999999,0.28343939599999995,0.167061974,,183.72727272727272,1,L06_NIRS-2019-08-14_003_trial05.txt,89.0
7,544.576,4.764408049999999,4.64040865,10.2645416,7.893153610000001,-0.30955313400000006,-0.8494285099999999,4.151809180000001,3.58060797,5.16186673,1.47920478,0.32904433,0.19967705000000002,,183.72727272727272,1,L06_NIRS-2019-08-14_003_trial05.txt,89.0
8,545.856,4.857511049999999,4.70375331,10.373411100000002,7.977380420000001,-0.261214078,-0.818603153,4.18877098,3.6344678100000003,5.2890899099999995,1.5382492099999998,0.381903202,0.22388518499999996,,183.72727272727272,1,L06_NIRS-2019-08-14_003_trial05.txt,89.0
9,547.1359999999999,5.06334699,4.8513605,10.5973867,8.17484932,-0.1295841676,-0.743135162,4.19976283,3.6669562300000003,5.38775948,1.5738743,0.418757623,0.22563702000000002,,183.72727272727272,1,L06_NIRS-2019-08-14_003_trial05.txt,89.0
10,548.4159999999999,5.30551996,5.027796889999999,10.8885632,8.428700209999999,0.04242962131,-0.654443421,4.1861543900000004,3.67446797,5.444884760000001,1.57859356,0.431390976,0.215658351,,183.72727272727272,1,L06_NIRS-2019-08-14_003_trial05.txt,89.0
11,549.696,5.478629970000001,5.17101043,11.165877999999998,8.65410164,0.19782057600000003,-0.5770283629999999,4.168581430000001,3.6661898899999996,5.46724567,1.55653254,0.42135181599999993,0.19985090700000002,,183.72727272727272,1,L06_NIRS-2019-08-14_003_trial05.txt,89.0
12,550.9759999999999,5.553575219999999,5.22908615,11.3523593,8.778635730000001,0.279169935,-0.537276443,4.150311320000001,3.6522943600000004,5.464676550000001,1.5141458700000001,0.39419565600000006,0.183397304,,183.72727272727272,1,L06_NIRS-2019-08-14_003_trial05.txt,89.0
13,552.256,5.50598836,5.200739110000001,11.402804399999999,8.80033362,0.280379997,-0.547426329,4.14141975,3.6348438100000005,5.43426149,1.4605365199999998,0.357440424,0.164056052,,183.72727272727272,1,L06_NIRS-2019-08-14_003_trial05.txt,89.0
14,553.5360000000001,5.389720819999999,5.13187078,11.3935838,8.785720649999998,0.24020740299999996,-0.5903522700000001,4.12949316,3.6172385400000002,5.398668810000001,1.4074657900000003,0.32188563800000003,0.141876464,,183.72727272727272,1,L06_NIRS-2019-08-14_003_trial05.txt,89.0
15,554.816,5.28332931,5.07061142,11.3902984,8.782300860000001,0.202072626,-0.633904764,4.1133133,3.6045431400000005,5.36834595,1.36353975,0.296399217,0.11957031600000001,,183.72727272727272,1,L06_NIRS-2019-08-14_003_trial05.txt,89.0
16,556.0959999999999,5.1891038599999995,5.019620119999999,11.430484900000002,8.78428825,0.16190076399999997,-0.6855571750000001,4.09424472,3.60329256,5.37525323,1.3414456000000001,0.289582962,0.10837203200000001,,183.72727272727272,1,L06_NIRS-2019-08-14_003_trial05.txt,89.0
17,557.376,5.09340666,4.973912350000001,11.467900599999998,8.77535429,0.12998961999999997,-0.7163313200000001,4.07788491,3.6121185799999997,5.40642001,1.34572996,0.304047162,0.112307716,,183.72727272727272,1,L06_NIRS-2019-08-14_003_trial05.txt,89.0
18,558.6560000000001,5.05332955,4.96290121,11.5210547,8.773563439999998,0.12287699700000002,-0.7122833529999999,4.080282810000001,3.6311210800000007,5.4721735800000015,1.37550668,0.32923489999999994,0.11980656,,183.72727272727272,1,L06_NIRS-2019-08-14_003_trial05.txt,89.0
19,559.9359999999999,5.087173120000001,4.98437372,11.573318800000001,8.78077769,0.126391829,-0.6905656440000001,4.08924496,3.65024904,5.54104669,1.4036793300000001,0.34333545899999995,0.117566133,,183.72727272727272,1,L06_NIRS-2019-08-14_003_trial05.txt,89.0
20,561.216,5.14908546,5.01480164,11.6000896,8.795073460000001,0.13186438800000003,-0.675098245,4.09416573,3.65279333,5.579489130000001,1.4088295599999998,0.33801618999999994,0.100736491,,183.72727272727272,1,L06_NIRS-2019-08-14_003_trial05.txt,89.0
21,562.4960000000001,5.21447669,5.026762719999999,11.6030096,8.80847326,0.12005539399999998,-0.677542497,4.0819543,3.63786991,5.585303340000001,1.38153704,0.313834288,0.0702154315,,183.72727272727272,1,L06_NIRS-2019-08-14_003_trial05.txt,89.0
22,563.776,5.2616646199999995,5.003326150000001,11.560979499999998,8.804816700000002,0.09649592679999999,-0.681229492,4.060459799999999,3.6159037400000003,5.557778429999999,1.3339228099999998,0.28372321600000006,0.038849287999999996,,183.72727272727272,1,L06_NIRS-2019-08-14_003_trial05.txt,89.0
23,565.0559999999999,5.232820129999999,4.93514524,11.4669418,8.75493973,0.0467901734,-0.707232461,4.03615905,3.5969302999999995,5.509291180000001,1.28560005,0.258942527,0.0202579602,,183.72727272727272,1,L06_NIRS-2019-08-14_003_trial05.txt,89.0
24,566.336,5.163231399999999,4.859427269999999,11.3280674,8.68738194,0.019039772200000003,-0.698088615,4.017867879999999,3.58326615,5.42813673,1.2463964299999997,0.244084032,0.013350705800000001,,183.72727272727272,1,L06_NIRS-2019-08-14_003_trial05.txt,89.0
25,567.616,5.15627295,4.852722730000001,11.252797999999999,8.66278523,0.0440249723,-0.644715537,4.01332491,3.5773055200000003,5.34537115,1.2201556600000003,0.23336636200000002,0.007327837580000001,,183.72727272727272,1,L06_NIRS-2019-08-14_003_trial05.txt,89.0
26,568.896,5.23780373,4.94411311,11.289468300000001,8.723701460000001,0.13962644429999999,-0.5411107380000001,4.0092457999999995,3.56976143,5.26057095,1.1998284399999999,0.221181755,-0.005516041697,,183.72727272727272,1,L06_NIRS-2019-08-14_003_trial05.txt,89.0
27,570.176,5.40876074,5.110161959999999,11.423098,8.85715283,0.271714495,-0.42870687200000007,3.99624423,3.5505959,5.17477937,1.17565293,0.206629369,-0.0176613425,,183.72727272727272,1,L06_NIRS-2019-08-14_003_trial05.txt,89.0
28,571.456,5.594952959999999,5.26444494,11.5744228,8.99706882,0.38038687499999996,-0.34418170400000003,3.97493085,3.51919556,5.091859189999999,1.1404907999999998,0.18965106899999998,-0.0285512078,,183.72727272727272,1,L06_NIRS-2019-08-14_003_trial05.txt,89.0
29,572.736,5.6762561300000005,5.31509871,11.626737199999999,9.04785474,0.40134530999999996,-0.33654368,3.9528866999999996,3.4863141900000003,5.031115,1.1038854200000001,0.17141024100000002,-0.0339748139,,183.72727272727272,1,L06_NIRS-2019-08-14_003_trial05.txt,89.0
30,574.016,5.628567000000001,5.252087650000001,11.5342467,8.993368,0.350716296,-0.381971026,3.9472406399999995,3.4659701400000005,4.9917219500000005,1.07800857,0.15453124499999998,-0.031867152100000004,,183.72727272727272,1,L06_NIRS-2019-08-14_003_trial05.txt,89.0
31,575.296,5.5475055300000005,5.162324539999999,11.3964335,8.91843315,0.303785988,-0.40960067899999997,3.96283362,3.46614333,4.9751786000000005,1.0695247,0.14372823399999998,-0.0260817722,,183.72727272727272,1,L06_NIRS-2019-08-14_003_trial05.txt,89.0
32,576.576,5.49964399,5.12535074,11.339597600000001,8.909185349999998,0.317066862,-0.391584241,3.9848763700000007,3.4837194999999994,4.9767645,1.07007436,0.137532704,-0.0220286196,,183.72727272727272,1,L06_NIRS-2019-08-14_003_trial05.txt,89.0
33,577.856,5.53348661,5.17216806,11.4204167,9.007475260000001,0.406795055,-0.317412642,4.0012824,3.50489848,4.98565214,1.06313092,0.129299143,-0.0283458555,,183.72727272727272,1,L06_NIRS-2019-08-14_003_trial05.txt,89.0
34,579.1359999999999,5.62987397,5.279037669999999,11.607214,9.1854354,0.534741735,-0.232544007,4.007514339999999,3.5158122900000004,4.999205419999999,1.0387828100000003,0.11164629100000001,-0.0404722953,,183.72727272727272,1,L06_NIRS-2019-08-14_003_trial05.txt,89.0
35,580.4159999999999,5.68654413,5.357340290000001,11.781922499999997,9.346574,0.6321242440000001,-0.18646104900000002,4.00692219,3.50752029,5.01127118,0.9970174840000002,0.0814777488,-0.05590673509999999,,183.72727272727272,1,L06_NIRS-2019-08-14_003_trial05.txt,89.0
36,581.696,5.618758340000001,5.33221443,11.821344500000002,9.38833884,0.63584882,-0.21464017999999996,4.015102789999999,3.48653428,5.02251562,0.9520488219999999,0.0457872306,-0.07058067459999999,,183.72727272727272,1,L06_NIRS-2019-08-14_003_trial05.txt,89.0
37,582.9759999999999,5.4601458,5.22328534,11.739606199999999,9.32557817,0.5784275039999999,-0.279306093,4.048197060000001,3.47201607,5.03602235,0.9289477759999999,0.024551920400000003,-0.0736750427,,183.72727272727272,1,L06_NIRS-2019-08-14_003_trial05.txt,89.0
38,584.256,5.28942035,5.11460453,11.6318703,9.218269500000002,0.502080521,-0.353242368,4.098965890000001,3.4729728399999997,5.05903258,0.9408165759999999,0.026432887500000002,-0.06793326000000001,,183.72727272727272,1,L06_NIRS-2019-08-14_003_trial05.txt,89.0
39,585.536,5.1793222100000005,5.0907192299999995,11.6045128,9.1671872,0.48348308900000003,-0.381253211,4.14857298,3.4884152900000003,5.083272829999999,0.9762554910000001,0.042633335,-0.06336120850000002,,183.72727272727272,1,L06_NIRS-2019-08-14_003_trial05.txt,89.0
40,586.816,5.20357497,5.18697342,11.7230906,9.229193040000002,0.550905137,-0.348203924,4.18007812,3.50546466,5.10477041,1.0102746489999999,0.052937629400000005,-0.0718861655,,183.72727272727272,1,L06_NIRS-2019-08-14_003_trial05.txt,89.0
41,588.0959999999999,5.3312412700000005,5.34709035,11.9405924,9.371813990000001,0.6718572330000001,-0.27190357900000006,4.17796049,3.50683157,5.112231550000001,1.0166174600000002,0.0403520651,-0.10137422909999998,,183.72727272727272,1,L06_NIRS-2019-08-14_003_trial05.txt,89.0
42,589.376,5.49334909,5.48731778,12.148742799999997,9.527398869999999,0.800001626,-0.171014957,4.149100450000001,3.4883617200000003,5.100703439999999,0.9905695870000001,0.006045685313000001,-0.141274568,,183.72727272727272,1,L06_NIRS-2019-08-14_003_trial05.txt,89.0
43,590.6560000000001,5.64124519,5.548832580000001,12.2672359,9.64449636,0.9031273299999999,-0.0561716718,4.11303715,3.4654846900000003,5.0853870699999995,0.958395211,-0.0223477455,-0.17355020399999999,,183.72727272727272,1,L06_NIRS-2019-08-14_003_trial05.txt,89.0
44,591.9359999999999,5.7541522700000005,5.53338147,12.3056479,9.699789860000001,0.9515877959999999,0.035124249760000004,4.08673409,3.4551558399999998,5.090559359999999,0.947299335,-0.0219844691,-0.184132562,,183.72727272727272,1,L06_NIRS-2019-08-14_003_trial05.txt,89.0
45,593.2160000000001,5.813279490000001,5.484792409999999,12.3021007,9.68384197,0.9293495310000001,0.06443292519999999,4.07487141,3.46131435,5.124329100000001,0.968172929,0.005516139087000001,-0.17690943400000003,,183.72727272727272,1,L06_NIRS-2019-08-14_003_trial05.txt,89.0
46,594.4959999999999,5.8469505,5.476801159999999,12.331498900000001,9.65501714,0.882202203,0.05375717750000001,4.079693310000001,3.48119446,5.17880334,1.010846315,0.04504807189999999,-0.162414043,,183.72727272727272,1,L06_NIRS-2019-08-14_003_trial05.txt,89.0
47,595.776,5.875261450000001,5.5358778,12.441593699999999,9.6579555,0.856125931,0.02427617731,4.08672282,3.5035072899999995,5.24249013,1.0586799700000002,0.0771665715,-0.15076734900000002,,183.72727272727272,1,L06_NIRS-2019-08-14_003_trial05.txt,89.0
48,597.056,5.87138493,5.60182508,12.5832454,9.668086039999999,0.8459836869999998,-0.006452007819999999,4.08375376,3.51645734,5.2959686900000005,1.09192357,0.08797799930000001,-0.157744071,,183.72727272727272,1,L06_NIRS-2019-08-14_003_trial05.txt,89.0
49,598.336,5.85570555,5.64796052,12.7074891,9.69198596,0.865870334,0.004775819399999999,4.07907094,3.5214771,5.333105520000001,1.10941781,0.0828116254,-0.17990361700000002,,183.72727272727272,1,L06_NIRS-2019-08-14_003_trial05.txt,89.0
50,599.616,5.881801179999999,5.68965833,12.8173093,9.770605219999998,0.9572070260000001,0.08569149890000001,4.074181240000001,3.52147799,5.362678410000001,1.1260702900000001,0.0787195375,-0.20039871700000003,,183.72727272727272,1,L06_NIRS-2019-08-14_003_trial05.txt,89.0
51,600.896,5.963122060000001,5.73358271,12.9153177,9.89275196,1.08564657,0.189349036,4.06533908,3.50990566,5.3755089599999994,1.13203296,0.07237279649999999,-0.21624779399999997,,183.72727272727272,1,L06_NIRS-2019-08-14_003_trial05.txt,89.0
52,602.176,6.037354840000001,5.765666229999999,12.9947361,10.000193,1.1810901,0.25518673999999997,4.05287178,3.4870452800000002,5.36322822,1.11617501,0.05557631150000001,-0.23447305700000004,,183.72727272727272,1,L06_NIRS-2019-08-14_003_trial05.txt,89.0
53,603.456,6.05633112,5.77539688,13.042616800000001,10.049440299999997,1.20363213,0.25904918800000004,4.043665890000001,3.46183511,5.32947188,1.0840407,0.03373441889999999,-0.249363701,,183.72727272727272,1,L06_NIRS-2019-08-14_003_trial05.txt,89.0
54,604.736,6.02477437,5.762615680000001,13.053181799999999,10.035938199999999,1.17051457,0.22559704000000003,4.04049472,3.4439141699999993,5.28492381,1.05444395,0.016977455800000003,-0.250443608,,183.72727272727272,1,L06_NIRS-2019-08-14_003_trial05.txt,89.0
55,606.016,5.964531729999999,5.7431199400000015,13.0424451,9.98535844,1.1121004000000003,0.187795008,4.0396315,3.43932866,5.250978289999999,1.0474503599999998,0.014302668699999998,-0.246201876,,183.72727272727272,1,L06_NIRS-2019-08-14_003_trial05.txt,89.0
56,607.296,5.915383050000001,5.743431110000001,13.034061100000002,9.951215000000001,1.07646276,0.180925476,4.03473775,3.44335168,5.2272215200000005,1.0621335,0.0234688256,-0.241214628,,183.72727272727272,1,L06_NIRS-2019-08-14_003_trial05.txt,89.0
57,608.576,5.95632872,5.786408120000001,13.037483799999999,9.97216817,1.1004579499999998,0.22027871999999998,4.02468648,3.44393263,5.204508850000001,1.0847815500000002,0.0345914843,-0.239732243,,183.72727272727272,1,L06_NIRS-2019-08-14_003_trial05.txt,89.0
58,609.856,6.0527411,5.85056988,13.036604300000002,10.0433046,1.16275781,0.266049967,4.00621585,3.43524665,5.18856812,1.10189258,0.0350974545,-0.24192808999999998,,183.72727272727272,1,L06_NIRS-2019-08-14_003_trial05.txt,89.0
59,611.1360000000001,6.138419290000001,5.88936316,13.028605099999998,10.141465,1.2459433699999998,0.32851623900000004,3.97692762,3.4184193499999997,5.171095220000001,1.1040769000000001,0.0266288953,-0.250292864,,183.72727272727272,1,L06_NIRS-2019-08-14_003_trial05.txt,89.0
60,612.4159999999999,6.239968020000001,5.918359720000001,13.0899493,10.2801729,1.3793762900000002,0.43582114299999997,3.95277848,3.4071961799999997,5.16297895,1.1034097900000002,0.030134971200000006,-0.248241383,,183.72727272727272,1,L06_NIRS-2019-08-14_003_trial05.txt,89.0
61,613.696,6.409837870000001,5.9688994200000005,13.258623700000001,10.443891200000001,1.55971544,0.594753165,3.9477238500000005,3.41168705,5.169211939999999,1.1125257499999999,0.0565238262,-0.22931197600000003,,183.72727272727272,1,L06_NIRS-2019-08-14_003_trial05.txt,89.0
62,614.9759999999999,6.6807479999999995,6.08955265,13.5380444,10.642339100000001,1.7820191600000002,0.7987246840000001,3.95884194,3.430249930000001,5.1822242,1.13645242,0.1035788763,-0.19903400899999998,,183.72727272727272,1,L06_NIRS-2019-08-14_003_trial05.txt,89.0
63,616.2560000000001,7.06575158,6.30517551,13.9211366,10.885152000000001,2.03772967,1.020495946,3.9736722099999993,3.45314013,5.186766710000001,1.1633291799999999,0.15785787799999998,-0.165792369,,183.72727272727272,1,L06_NIRS-2019-08-14_003_trial05.txt,89.0
64,617.536,7.550919529999999,6.579781199999999,14.322472800000003,11.132064600000001,2.28827272,1.23766591,3.9872776399999994,3.4703166800000007,5.1633813,1.1799746,0.20486143500000004,-0.136985659,,183.72727272727272,1,L06_NIRS-2019-08-14_003_trial05.txt,89.0
65,618.816,8.01334587,6.84191591,14.635008200000001,11.3238575,2.46650146,1.3877138500000001,3.9914246099999993,3.47949677,5.130692150000001,1.1913312700000003,0.23387713599999999,-0.12112583800000003,,183.72727272727272,1,L06_NIRS-2019-08-14_003_trial05.txt,89.0
66,620.0959999999999,8.38055809,7.02492994,14.785010599999998,11.4523708,2.5786655,1.50501992,3.97598361,3.4737086100000005,5.05850596,1.20091338,0.24664420500000003,-0.11103015099999998,,183.72727272727272,1,L06_NIRS-2019-08-14_003_trial05.txt,89.0
67,621.376,8.622248600000002,7.09785872,14.823543599999999,11.5309158,2.6337808099999998,1.5996779599999997,3.9313058499999998,3.45046684,4.98860117,1.1969388300000001,0.249954862,-0.108198358,,183.72727272727272,1,L06_NIRS-2019-08-14_003_trial05.txt,89.0
68,622.6560000000001,8.732340440000002,7.061511469999999,14.8446833,11.564511000000001,2.62325701,1.6572597799999997,3.8726454099999996,3.4225097999999994,4.93651235,1.17848044,0.246822616,-0.112045884,,183.72727272727272,1,L06_NIRS-2019-08-14_003_trial05.txt,89.0
