,time,S3_D4_HbO,S3_D3_HbO,S2_D3_HbO,S2_D2_HbO,S1_D2_HbO,S1_D1_HbO,S3_D4_HbR,S3_D3_HbR,S2_D3_HbR,S2_D2_HbR,S1_D2_HbR,S1_D1_HbR,Var14,score,labelnum,filename,total_time
0,1280.4479999999999,8.36705652,3.5626087500000003,10.9864147,-2.44966158,-5.532795749999999,9.862333439999999,3.17823968,3.1580653000000005,2.36386595,2.2359447,0.0795537808,1.1602665699999999,,108.69696969696969,0,L06_NIRS-2019-08-18_004_trial08.txt,161.0
1,1281.728,8.338181520000001,3.62062348,11.087210000000002,-2.3358600899999997,-5.4448951999999995,9.917363819999998,3.20880866,3.1748250000000002,2.41657527,2.24354276,0.0939001574,1.19059925,,108.69696969696969,0,L06_NIRS-2019-08-18_004_trial08.txt,161.0
2,1283.0080000000003,8.4619822,3.7755414900000006,11.3184022,-2.19753795,-5.33064076,10.01005691,3.23440898,3.20576257,2.51824215,2.26846922,0.13707323300000002,1.2309023899999998,,108.69696969696969,0,L06_NIRS-2019-08-18_004_trial08.txt,161.0
3,1284.288,8.621802979999998,3.92200469,11.5771577,-2.1307343100000002,-5.2740385000000005,10.0535507,3.2228108399999997,3.22999048,2.6383805000000002,2.28996044,0.183022171,1.25849918,,108.69696969696969,0,L06_NIRS-2019-08-18_004_trial08.txt,161.0
4,1285.568,8.6254333,3.9438193499999996,11.7076744,-2.1888187999999995,-5.34664325,9.987055279999998,3.2238280500000003,3.2375716999999993,2.73501775,2.2900951199999993,0.20820240499999998,1.27394156,,108.69696969696969,0,L06_NIRS-2019-08-18_004_trial08.txt,161.0
5,1286.848,8.49504336,3.86528688,11.7033046,-2.28234253,-5.441974629999999,9.90593073,3.24991736,3.23410071,2.8052916100000003,2.28357131,0.217236049,1.28660624,,108.69696969696969,0,L06_NIRS-2019-08-18_004_trial08.txt,161.0
6,1288.1280000000002,8.305658679999999,3.74432848,11.6546133,-2.3326135399999997,-5.479194229999999,9.84688843,3.283105669999999,3.21987782,2.8405784400000003,2.2733645,0.21336025900000002,1.29037777,,108.69696969696969,0,L06_NIRS-2019-08-18_004_trial08.txt,161.0
7,1289.408,8.27214745,3.7056036799999994,11.6930562,-2.2472827,-5.374154,9.91112301,3.2896999300000003,3.1984869500000004,2.81107041,2.2611241800000004,0.19929236599999997,1.28707724,,108.69696969696969,0,L06_NIRS-2019-08-18_004_trial08.txt,161.0
8,1290.688,8.546124090000001,3.8463875799999996,11.9506783,-2.00016967,-5.0951625,10.1429648,3.2220489299999997,3.1910329699999997,2.70608592,2.2449933599999996,0.17289410400000002,1.27199074,,108.69696969696969,0,L06_NIRS-2019-08-18_004_trial08.txt,161.0
9,1291.968,9.064930369999999,4.135495489999999,12.3643257,-1.70360713,-4.76624071,10.448346400000002,3.0735332700000004,3.1922018099999994,2.55210462,2.21311153,0.1259700226,1.24146409,,108.69696969696969,0,L06_NIRS-2019-08-18_004_trial08.txt,161.0
10,1293.248,9.593378349999998,4.435725079999999,12.8281924,-1.43325895,-4.47229725,10.745980300000001,2.9057344399999994,3.1954425500000005,2.4147581700000003,2.1650592900000007,0.0651467954,1.2022630800000003,,108.69696969696969,0,L06_NIRS-2019-08-18_004_trial08.txt,161.0
11,1294.5279999999998,9.86916232,4.604653900000001,13.234117700000002,-1.24843338,-4.27864632,10.941255,2.8032498899999996,3.19806506,2.3522235799999995,2.1122170799999997,0.00936393998,1.1680417300000001,,108.69696969696969,0,L06_NIRS-2019-08-18_004_trial08.txt,161.0
12,1295.808,9.80876631,4.592121550000001,13.4478715,-1.1657254799999999,-4.1934787700000005,11.026466,2.8067499399999996,3.19981633,2.3653696699999998,2.07679596,-0.021875880900000002,1.1510571100000002,,108.69696969696969,0,L06_NIRS-2019-08-18_004_trial08.txt,161.0
13,1297.0880000000002,9.499437519999999,4.43706192,13.470488699999999,-1.1538558999999997,-4.19168022,11.0129877,2.90387145,3.2008468199999998,2.45488164,2.0662909799999998,-0.01556891246,1.15149094,,108.69696969696969,0,L06_NIRS-2019-08-18_004_trial08.txt,161.0
14,1298.368,9.16585669,4.26055245,13.3907569,-1.17675663,-4.22968484,10.9717277,3.03314089,3.2023175700000004,2.58572112,2.0862842099999996,0.02138754444,1.1636994399999998,,108.69696969696969,0,L06_NIRS-2019-08-18_004_trial08.txt,161.0
15,1299.648,9.003366119999999,4.1528649699999995,13.321657100000001,-1.20422215,-4.269154640000001,10.9465945,3.10725456,3.21643469,2.69748175,2.12012596,0.0649096479,1.1697994699999998,,108.69696969696969,0,L06_NIRS-2019-08-18_004_trial08.txt,161.0
16,1300.9280000000003,8.95904274,4.09637234,13.2171368,-1.31536972,-4.3939786,10.859657200000001,3.1094415,3.224778119999999,2.76304206,2.14375703,0.08817851530000001,1.1589070700000002,,108.69696969696969,0,L06_NIRS-2019-08-18_004_trial08.txt,161.0
17,1302.208,8.95864862,4.05561498,13.032930299999999,-1.4900794,-4.56460329,10.763144500000001,3.0706964599999997,3.2221968399999996,2.7703368299999998,2.15656077,0.08696914139999998,1.1437958600000002,,108.69696969696969,0,L06_NIRS-2019-08-18_004_trial08.txt,161.0
18,1303.488,8.989702789999999,4.03563732,12.849730400000002,-1.6331243,-4.68581136,10.7093199,3.0102197200000003,3.20920901,2.72471902,2.15892164,0.07227948679999999,1.13004351,,108.69696969696969,0,L06_NIRS-2019-08-18_004_trial08.txt,161.0
19,1304.768,9.0160442,4.016822100000001,12.6905483,-1.73983159,-4.7675825099999996,10.6618405,2.94122601,3.1843467599999995,2.61980412,2.14604014,0.0430223529,1.10787743,,108.69696969696969,0,L06_NIRS-2019-08-18_004_trial08.txt,161.0
20,1306.048,9.049186160000001,4.0072926,12.5863932,-1.80368753,-4.82543147,10.6111054,2.87840377,3.15604163,2.49667637,2.1246289099999998,0.009726343504,1.08266259,,108.69696969696969,0,L06_NIRS-2019-08-18_004_trial08.txt,161.0
21,1307.328,9.058485769999999,4.00132629,12.549429700000001,-1.8438625400000004,-4.86839297,10.561430499999998,2.8401152000000005,3.13512229,2.4005961,2.10433755,-0.01557493355,1.06088443,,108.69696969696969,0,L06_NIRS-2019-08-18_004_trial08.txt,161.0
22,1308.6079999999997,9.02711505,3.9897957999999996,12.568630299999999,-1.8698524900000002,-4.89687848,10.521314700000001,2.8419844299999997,3.1305070600000002,2.3588776200000003,2.0954193299999995,-0.027939274200000003,1.04771598,,108.69696969696969,0,L06_NIRS-2019-08-18_004_trial08.txt,161.0
23,1309.888,8.93157457,3.94990321,12.6025068,-1.8925954800000002,-4.925796540000001,10.473300799999999,2.89312628,3.1419439000000002,2.3852830399999996,2.1020830999999993,-0.026249971100000002,1.04609002,,108.69696969696969,0,L06_NIRS-2019-08-18_004_trial08.txt,161.0
24,1311.1680000000001,8.84686277,3.9214694100000003,12.663862700000001,-1.86428387,-4.902367989999999,10.479374400000001,2.9649916600000004,3.16667803,2.4620621,2.12933991,-0.011037833813,1.06089035,,108.69696969696969,0,L06_NIRS-2019-08-18_004_trial08.txt,161.0
25,1312.4479999999999,8.928826549999998,4.0002200199999995,12.8814168,-1.6812692199999997,-4.72238969,10.6277474,3.01078664,3.19680366,2.5630500300000003,2.1702398700000005,0.01605530795,1.0850495,,108.69696969696969,0,L06_NIRS-2019-08-18_004_trial08.txt,161.0
26,1313.728,9.16835947,4.17746374,13.274169199999998,-1.3985793499999999,-4.44787118,10.838683000000001,2.9982824,3.2187313900000007,2.65572683,2.1971407899999997,0.0383984287,1.0975187899999999,,108.69696969696969,0,L06_NIRS-2019-08-18_004_trial08.txt,161.0
27,1315.0080000000003,9.42423138,4.35226726,13.673121899999998,-1.18734453,-4.2510701,10.9782013,2.9476767300000004,3.2269390899999997,2.7164373000000004,2.1985624899999996,0.0432152042,1.09348712,,108.69696969696969,0,L06_NIRS-2019-08-18_004_trial08.txt,161.0
28,1316.288,9.54058347,4.421974179999999,13.883990299999999,-1.1799546799999998,-4.24489254,10.966146600000002,2.9020392500000005,3.22336059,2.7367276599999997,2.1774606599999995,0.0339756456,1.0811491,,108.69696969696969,0,L06_NIRS-2019-08-18_004_trial08.txt,161.0
29,1317.568,9.44477851,4.336923260000001,13.815414,-1.38570464,-4.44249796,10.801339300000002,2.8996623500000003,3.21547755,2.7260558699999997,2.1511979200000004,0.0215961852,1.07550422,,108.69696969696969,0,L06_NIRS-2019-08-18_004_trial08.txt,161.0
30,1318.848,9.230882779999998,4.1642996100000005,13.5624371,-1.66063531,-4.72241571,10.5725648,2.9364272399999995,3.2099146000000003,2.70698822,2.14186676,0.020848163200000002,1.08496547,,108.69696969696969,0,L06_NIRS-2019-08-18_004_trial08.txt,161.0
31,1320.1280000000002,9.02106236,3.98628451,13.311044599999997,-1.8733541299999998,-4.963522510000001,10.3534361,2.9626345800000005,3.20475762,2.692510359999999,2.15727153,0.0314837229,1.0980601,,108.69696969696969,0,L06_NIRS-2019-08-18_004_trial08.txt,161.0
32,1321.408,8.996719989999999,3.93446961,13.2425922,-1.90270421,-5.0437553600000005,10.2715258,2.9503159500000002,3.2023796599999996,2.68104514,2.18593378,0.0503565884,1.1108160200000001,,108.69696969696969,0,L06_NIRS-2019-08-18_004_trial08.txt,161.0
33,1322.688,9.15015902,4.01335076,13.392930000000002,-1.78573296,-4.96191657,10.3289789,2.8864863400000003,3.20111916,2.681857590000001,2.21382992,0.07320215560000001,1.1179259499999998,,108.69696969696969,0,L06_NIRS-2019-08-18_004_trial08.txt,161.0
34,1323.968,9.31301175,4.111711230000001,13.591813800000002,-1.6634156,-4.84661293,10.427820100000002,2.81689136,3.2016135700000006,2.68244259,2.2234242600000003,0.0900093929,1.12317084,,108.69696969696969,0,L06_NIRS-2019-08-18_004_trial08.txt,161.0
35,1325.248,9.34574558,4.13553681,13.665381199999999,-1.6354459399999999,-4.802541580000001,10.4787928,2.80084571,3.2089890499999996,2.69658083,2.2250552600000004,0.10532318950000001,1.1376321900000002,,108.69696969696969,0,L06_NIRS-2019-08-18_004_trial08.txt,161.0
36,1326.5279999999998,9.232416109999999,4.058937240000001,13.555291800000001,-1.71665493,-4.867224800000001,10.449423300000001,2.8503453899999998,3.2268998000000004,2.7351273299999996,2.22938773,0.124801521,1.1682108599999999,,108.69696969696969,0,L06_NIRS-2019-08-18_004_trial08.txt,161.0
37,1327.808,9.10422611,3.9704785799999995,13.388481500000001,-1.80844303,-4.95763986,10.4030039,2.9382181399999996,3.25549606,2.80184028,2.24797992,0.15117219899999998,1.20646631,,108.69696969696969,0,L06_NIRS-2019-08-18_004_trial08.txt,161.0
38,1329.0880000000002,9.01296155,3.9118465000000002,13.290472200000002,-1.8653775600000002,-5.02025995,10.3542284,3.0077080599999997,3.2820172399999996,2.8768458400000005,2.2720242100000005,0.170555644,1.23042134,,108.69696969696969,0,L06_NIRS-2019-08-18_004_trial08.txt,161.0
39,1330.368,9.015747359999999,3.9311793699999997,13.2949437,-1.85956593,-5.01522453,10.344445400000001,3.05092158,3.2969948700000002,2.9165260700000006,2.2822730200000003,0.168465047,1.2349203899999999,,108.69696969696969,0,L06_NIRS-2019-08-18_004_trial08.txt,161.0
40,1331.648,9.11820389,4.03157187,13.4071112,-1.78681479,-4.9126641300000005,10.397881,3.0528252,3.3020183000000003,2.9208309700000004,2.2796008899999998,0.151659504,1.2216074700000001,,108.69696969696969,0,L06_NIRS-2019-08-18_004_trial08.txt,161.0
41,1332.9280000000003,9.17987741,4.111705359999999,13.505324300000002,-1.7297220500000001,-4.812309839999999,10.424516399999998,3.0373443900000003,3.29916797,2.8894415200000005,2.2581487,0.126771546,1.2015336099999998,,108.69696969696969,0,L06_NIRS-2019-08-18_004_trial08.txt,161.0
42,1334.208,9.13809178,4.12498596,13.4922201,-1.72160333,-4.78373827,10.3857404,3.0542938100000003,3.2990261199999997,2.8523125000000005,2.2332239599999997,0.11134255900000001,1.19379879,,108.69696969696969,0,L06_NIRS-2019-08-18_004_trial08.txt,161.0
43,1335.488,9.0007898,4.068236420000001,13.3556907,-1.78292563,-4.85085386,10.275588299999999,3.1001410199999997,3.3066221999999996,2.8389875,2.2188047,0.11536714900000003,1.20230182,,108.69696969696969,0,L06_NIRS-2019-08-18_004_trial08.txt,161.0
44,1336.768,8.84440742,3.9847074399999998,13.151218,-1.8995003499999998,-4.97904204,10.1408778,3.1591300499999995,3.3223848400000002,2.8571581900000003,2.22155471,0.136483882,1.21973945,,108.69696969696969,0,L06_NIRS-2019-08-18_004_trial08.txt,161.0
45,1338.048,8.754471720000002,3.9324192100000004,12.999297799999999,-1.9805775399999999,-5.0661571200000015,10.0640294,3.19109426,3.3387907300000004,2.89963658,2.2360499,0.16439025499999999,1.2340898799999998,,108.69696969696969,0,L06_NIRS-2019-08-18_004_trial08.txt,161.0
46,1339.328,8.742554080000001,3.924890630000001,12.945011099999999,-1.9956724400000003,-5.069767359999999,10.054308,3.1809904099999997,3.34458164,2.93232569,2.2510370600000003,0.17819335700000002,1.2384034999999998,,108.69696969696969,0,L06_NIRS-2019-08-18_004_trial08.txt,161.0
47,1340.6079999999997,8.806773360000001,3.95913417,12.981282799999999,-1.93765435,-5.0005307000000006,10.088702399999999,3.1419783000000003,3.3424750599999995,2.94398143,2.25461922,0.173867643,1.23160326,,108.69696969696969,0,L06_NIRS-2019-08-18_004_trial08.txt,161.0
48,1341.888,8.855351310000001,3.98479498,13.036136199999998,-1.87217544,-4.93713386,10.1021394,3.0981858499999997,3.33468024,2.9339735799999995,2.2450300000000003,0.15637086399999997,1.21999042,,108.69696969696969,0,L06_NIRS-2019-08-18_004_trial08.txt,161.0
49,1343.1680000000001,8.86935914,3.9996300700000007,13.0455915,-1.84432291,-4.93388704,10.0852735,3.0857381000000004,3.32939265,2.90716905,2.2272741700000003,0.13590606,1.2169911599999998,,108.69696969696969,0,L06_NIRS-2019-08-18_004_trial08.txt,161.0
50,1344.4479999999999,8.89211826,4.03955704,13.043880699999999,-1.83284543,-4.9515854699999995,10.0858187,3.09361105,3.33000257,2.8804943399999994,2.2149252699999997,0.12553253699999997,1.22588842,,108.69696969696969,0,L06_NIRS-2019-08-18_004_trial08.txt,161.0
51,1345.728,8.934133560000001,4.099362869999999,13.052499400000002,-1.81689226,-4.956244839999999,10.1222709,3.10060567,3.33466885,2.86171486,2.2069488799999997,0.125362156,1.24020656,,108.69696969696969,0,L06_NIRS-2019-08-18_004_trial08.txt,161.0
52,1347.0080000000003,9.00625809,4.179156839999999,13.131962600000003,-1.7264162200000002,-4.8794234,10.229916399999999,3.1019963,3.3431057800000006,2.86294948,2.2039880000000003,0.134744431,1.2542211,,108.69696969696969,0,L06_NIRS-2019-08-18_004_trial08.txt,161.0
53,1348.288,9.0550069,4.23424088,13.2713718,-1.5903505300000003,-4.744966159999999,10.3566463,3.09377279,3.3514226999999996,2.88927654,2.2070035499999996,0.15245140699999998,1.26542601,,108.69696969696969,0,L06_NIRS-2019-08-18_004_trial08.txt,161.0
54,1349.568,9.089157759999997,4.25688961,13.4303207,-1.43068923,-4.595391389999999,10.472577999999999,3.09206676,3.3576364600000006,2.9313683700000004,2.20576103,0.17696394599999998,1.2742312699999998,,108.69696969696969,0,L06_NIRS-2019-08-18_004_trial08.txt,161.0
55,1350.848,9.117813049999999,4.265556760000001,13.580163500000001,-1.2954532399999998,-4.466606560000001,10.5605432,3.0985552000000003,3.3608432400000003,2.9788882799999996,2.2088064,0.20260786400000003,1.27732131,,108.69696969696969,0,L06_NIRS-2019-08-18_004_trial08.txt,161.0
56,1352.1280000000002,9.14948283,4.2797049199999995,13.6946587,-1.2103429499999998,-4.38287056,10.620786500000001,3.10995508,3.36199,3.00774604,2.2080252799999998,0.21806786000000003,1.27403303,,108.69696969696969,0,L06_NIRS-2019-08-18_004_trial08.txt,161.0
57,1353.408,9.224313160000001,4.3438107299999995,13.8255367,-1.11983751,-4.28401086,10.7025181,3.10851964,3.3596510299999998,3.01021629,2.2045658599999998,0.22605929200000005,1.26586269,,108.69696969696969,0,L06_NIRS-2019-08-18_004_trial08.txt,161.0
58,1354.688,9.27110553,4.40245808,13.9280676,-1.0560834700000001,-4.21133321,10.7508839,3.08470873,3.34514128,2.97499309,2.1901810999999998,0.220418127,1.24812883,,108.69696969696969,0,L06_NIRS-2019-08-18_004_trial08.txt,161.0
59,1355.968,9.25696624,4.423338609999999,13.9591326,-1.008973644,-4.1628843,10.7810183,3.0634536100000007,3.3236681,2.91315515,2.16389513,0.204594753,1.2266714699999999,,108.69696969696969,0,L06_NIRS-2019-08-18_004_trial08.txt,161.0
60,1357.248,9.27054011,4.46270618,13.966123300000001,-0.9146665419999997,-4.06236326,10.8624996,3.0286869899999997,3.29881855,2.83227036,2.13804546,0.185301361,1.20326813,,108.69696969696969,0,L06_NIRS-2019-08-18_004_trial08.txt,161.0
61,1358.5279999999998,9.38958326,4.5699077599999995,14.039608300000001,-0.7224701649999999,-3.8687071000000004,11.019919100000001,2.9636680399999995,3.2693861299999996,2.7337353099999997,2.1091655699999996,0.158686478,1.17239211,,108.69696969696969,0,L06_NIRS-2019-08-18_004_trial08.txt,161.0
62,1359.808,9.63341301,4.76797611,14.2517448,-0.43223100600000003,-3.5828770800000003,11.2475834,2.86866076,3.24105568,2.63158555,2.07869845,0.12245834800000002,1.1338103199999998,,108.69696969696969,0,L06_NIRS-2019-08-18_004_trial08.txt,161.0
63,1361.0880000000002,9.88850823,4.988125000000001,14.545387400000001,-0.1302587273,-3.3007768499999997,11.458003599999998,2.7700167700000007,3.21954488,2.54897546,2.04436471,0.0793493568,1.09275868,,108.69696969696969,0,L06_NIRS-2019-08-18_004_trial08.txt,161.0
64,1362.368,10.036287989999998,5.15670957,14.7904004,0.07525352702000002,-3.13307948,11.5805779,2.71459882,3.2125252999999994,2.50985895,2.0144525100000004,0.04096413389999999,1.0624955899999997,,108.69696969696969,0,L06_NIRS-2019-08-18_004_trial08.txt,161.0
65,1363.648,9.98376443,5.19774335,14.859733400000001,0.05533708865,-3.1933039400000003,11.5275446,2.7364811300000005,3.21601286,2.52855252,2.0019742000000003,0.0166328606,1.0462138399999998,,108.69696969696969,0,L06_NIRS-2019-08-18_004_trial08.txt,161.0
66,1364.9280000000003,9.769849579999999,5.105804930000001,14.6905324,-0.18446034979999998,-3.46549118,11.3339056,2.82114485,3.22660491,2.58363796,2.0076901200000004,0.00857945398,1.04611403,,108.69696969696969,0,L06_NIRS-2019-08-18_004_trial08.txt,161.0
67,1366.2079999999999,9.613313359999998,5.02536239,14.478347099999999,-0.418110538,-3.70639966,11.181317900000002,2.90128685,3.2365757800000003,2.64086201,2.03806621,0.0170906527,1.05533829,,108.69696969696969,0,L06_NIRS-2019-08-18_004_trial08.txt,161.0
68,1367.488,9.68998683,5.0976146799999995,14.5151169,-0.44025157200000004,-3.7195676200000003,11.185831499999999,2.9177885100000003,3.2382930300000003,2.6715317,2.0742386699999997,0.030360650500000003,1.0553839699999998,,108.69696969696969,0,L06_NIRS-2019-08-18_004_trial08.txt,161.0
69,1368.768,9.988899619999998,5.321934570000001,14.8364815,-0.268151551,-3.53880968,11.3221122,2.8677671900000004,3.22765178,2.6540700599999996,2.0911385,0.03266437479999999,1.0412154799999997,,108.69696969696969,0,L06_NIRS-2019-08-18_004_trial08.txt,161.0
70,1370.048,10.368946099999999,5.5926513600000005,15.241761,-0.06338792039999999,-3.32357364,11.4872519,2.7787130099999997,3.2101469799999998,2.6031953100000003,2.0862614400000004,0.02006998208,1.02089179,,108.69696969696969,0,L06_NIRS-2019-08-18_004_trial08.txt,161.0
71,1371.328,10.536396,5.67544147,15.389742100000001,-0.0685751692,-3.2945475599999994,11.500099500000001,2.71157426,3.1865930199999997,2.55658649,2.0585508100000003,-0.01042994686,0.9938459399999999,,108.69696969696969,0,L06_NIRS-2019-08-18_004_trial08.txt,161.0
72,1372.6079999999997,10.365092299999999,5.49390722,15.185345200000004,-0.295252764,-3.4578634999999998,11.360573,2.7285987900000004,3.16674447,2.57125644,2.03589125,-0.0407667982,0.9710009270000001,,108.69696969696969,0,L06_NIRS-2019-08-18_004_trial08.txt,161.0
73,1373.888,10.0115186,5.16635483,14.8774868,-0.548340434,-3.63460016,11.219095000000001,2.81380558,3.1629417799999997,2.59730199,2.0397037499999997,-0.045699265499999996,0.9641916129999999,,108.69696969696969,0,L06_NIRS-2019-08-18_004_trial08.txt,161.0
74,1375.1680000000001,9.738091200000001,4.886518789999999,14.7312565,-0.642022571,-3.6643180200000005,11.1890765,2.8989203000000003,3.17056211,2.6161895900000003,2.06691063,-0.02292346501,0.9700637420000001,,108.69696969696969,0,L06_NIRS-2019-08-18_004_trial08.txt,161.0
75,1376.4479999999999,9.75559354,4.8293935900000005,14.914006200000003,-0.521540685,-3.5188479200000002,11.3083311,2.93932316,3.18503165,2.6073250800000003,2.10140407,0.01061642417,0.9766200249999999,,108.69696969696969,0,L06_NIRS-2019-08-18_004_trial08.txt,161.0
76,1377.728,10.05566508,4.998038129999999,15.309068700000001,-0.34253878600000004,-3.35223123,11.476433400000001,2.91025329,3.19705041,2.55648819,2.12369129,0.030412135899999998,0.9762654960000001,,108.69696969696969,0,L06_NIRS-2019-08-18_004_trial08.txt,161.0
77,1379.0080000000003,10.4529452,5.24649529,15.6061441,-0.30476392399999996,-3.34533178,11.560498200000001,2.8316484899999996,3.2001526300000003,2.4685143299999996,2.12341787,0.0254459277,0.974442063,,108.69696969696969,0,L06_NIRS-2019-08-18_004_trial08.txt,161.0
78,1380.288,10.6664419,5.34108787,15.543938,-0.5128803879999999,-3.5621946600000003,11.458409300000001,2.7444883599999996,3.1873163,2.39075522,2.10704534,0.006157326154999999,0.9721324880000001,,108.69696969696969,0,L06_NIRS-2019-08-18_004_trial08.txt,161.0
79,1381.568,10.5005251,5.16795392,15.086523,-0.8929271990000001,-3.94108472,11.1794012,2.71433857,3.1634098400000004,2.36442075,2.09535653,-0.00792475548,0.9829390589999999,,108.69696969696969,0,L06_NIRS-2019-08-18_004_trial08.txt,161.0
80,1382.848,10.11804063,4.8816463500000005,14.562860400000002,-1.2122581300000002,-4.262928560000001,10.918803999999998,2.7671133699999997,3.1517691700000006,2.35894356,2.1148101900000005,0.011012997290000002,1.02038786,,108.69696969696969,0,L06_NIRS-2019-08-18_004_trial08.txt,161.0
81,1384.1280000000002,9.769324819999998,4.6547397,14.1897993,-1.3810679000000001,-4.44049795,10.760676900000002,2.84452928,3.155891639999999,2.3835279700000003,2.15975697,0.05464829029999999,1.0667651999999999,,108.69696969696969,0,L06_NIRS-2019-08-18_004_trial08.txt,161.0
82,1385.4080000000001,9.59279367,4.57445248,14.036321800000001,-1.4214683,-4.488447710000001,10.719750900000001,2.90499576,3.17149875,2.4150794700000002,2.20947416,0.0967017674,1.10326335,,108.69696969696969,0,L06_NIRS-2019-08-18_004_trial08.txt,161.0
83,1386.6879999999996,9.586825050000002,4.62822433,14.0802738,-1.3678391299999997,-4.42173167,10.7838545,2.91850215,3.19291842,2.44698862,2.25078129,0.12334111699999999,1.12379908,,108.69696969696969,0,L06_NIRS-2019-08-18_004_trial08.txt,161.0
84,1387.9679999999998,9.624824120000001,4.70435163,14.2083227,-1.2772049199999997,-4.2987741900000005,10.880443800000004,2.90593289,3.21175066,2.4760459100000003,2.26939646,0.134050836,1.13448696,,108.69696969696969,0,L06_NIRS-2019-08-18_004_trial08.txt,161.0
85,1389.248,9.70092396,4.75789185,14.3668196,-1.1337978400000002,-4.125871630000001,11.042257199999998,2.88472322,3.2247197499999998,2.49759396,2.2754080200000004,0.14437063500000002,1.1555939600000003,,108.69696969696969,0,L06_NIRS-2019-08-18_004_trial08.txt,161.0
86,1390.5279999999998,9.75397798,4.764083100000001,14.542199400000001,-0.952696218,-3.92243863,11.209534099999997,2.85495273,3.22546812,2.5021641299999997,2.26773496,0.161278301,1.1802423899999999,,108.69696969696969,0,L06_NIRS-2019-08-18_004_trial08.txt,161.0
87,1391.808,9.780418919999999,4.72480073,14.655975300000003,-0.8199490740000002,-3.7809727999999994,11.2997652,2.8336655400000006,3.21252972,2.4773868500000003,2.24931501,0.17319835500000003,1.19211953,,108.69696969696969,0,L06_NIRS-2019-08-18_004_trial08.txt,161.0
88,1393.0880000000002,9.8888741,4.7272040099999995,14.6826683,-0.775007673,-3.7295212699999993,11.3444492,2.8059049,3.19774415,2.43037435,2.23081894,0.18484146799999998,1.1915455300000002,,108.69696969696969,0,L06_NIRS-2019-08-18_004_trial08.txt,161.0
89,1394.368,10.1259048,4.82383856,14.669361,-0.8067057959999999,-3.72546579,11.382000999999999,2.74748476,3.1838507899999997,2.3496913100000003,2.2108432700000002,0.179415683,1.17317916,,108.69696969696969,0,L06_NIRS-2019-08-18_004_trial08.txt,161.0
90,1395.6480000000001,10.3490977,4.926959309999999,14.597973999999999,-0.9104973820000002,-3.7853597,11.370854900000001,2.6796235399999997,3.17107331,2.2434385500000005,2.18407126,0.14548143,1.14022303,,108.69696969696969,0,L06_NIRS-2019-08-18_004_trial08.txt,161.0
91,1396.9280000000003,10.3845906,4.9266204899999995,14.424998399999998,-1.0966775629999999,-3.9527653000000003,11.243876699999998,2.65581026,3.1641714100000002,2.1580695100000002,2.16010585,0.0971338145,1.10987441,,108.69696969696969,0,L06_NIRS-2019-08-18_004_trial08.txt,161.0
92,1398.2079999999999,10.1978977,4.795090750000001,14.133720299999998,-1.3582668900000001,-4.234230349999999,11.0265386,2.69254271,3.1663086799999998,2.11874857,2.1538260200000003,0.05645079359999999,1.1061947,,108.69696969696969,0,L06_NIRS-2019-08-18_004_trial08.txt,161.0
93,1399.488,9.87396949,4.60057951,13.821784399999999,-1.60420375,-4.5148937799999995,10.802791299999999,2.77054138,3.1797030399999997,2.1314776,2.16905793,0.0460710873,1.12727614,,108.69696969696969,0,L06_NIRS-2019-08-18_004_trial08.txt,161.0
94,1400.768,9.551767860000002,4.40849125,13.582805200000001,-1.7576185599999998,-4.6913907,10.620025100000001,2.8492003099999996,3.1965233100000003,2.18496765,2.1992028599999998,0.05840905329999999,1.15381307,,108.69696969696969,0,L06_NIRS-2019-08-18_004_trial08.txt,161.0
95,1402.048,9.476914650000001,4.37091366,13.529887599999999,-1.7354076200000002,-4.6648539399999995,10.6169242,2.88217575,3.21839721,2.2442026900000003,2.23564862,0.09392811729999999,1.18409217,,108.69696969696969,0,L06_NIRS-2019-08-18_004_trial08.txt,161.0
96,1403.328,9.76472149,4.56995698,13.7600355,-1.52063422,-4.39897795,10.8294432,2.8398102,3.2374837999999997,2.26783784,2.26556247,0.124354517,1.2015292300000002,,108.69696969696969,0,L06_NIRS-2019-08-18_004_trial08.txt,161.0
97,1404.6079999999997,10.2299478,4.86741041,14.145950000000003,-1.2624922699999999,-4.084975890000001,11.1022233,2.74324743,3.2448349300000006,2.24272838,2.2667656000000003,0.12404671199999999,1.19824153,,108.69696969696969,0,L06_NIRS-2019-08-18_004_trial08.txt,161.0
98,1405.888,10.612632,5.08352457,14.456727,-1.1280910899999999,-3.9180616599999993,11.264242199999998,2.6585515500000003,3.2385832399999996,2.1993742500000004,2.2458985,0.09849475300000002,1.18496538,,108.69696969696969,0,L06_NIRS-2019-08-18_004_trial08.txt,161.0
99,1407.1680000000001,10.6546576,5.07264181,14.481148900000003,-1.24226367,-4.03169281,11.1902821,2.63512532,3.2204036499999993,2.16164224,2.21658736,0.06825796,1.1801775199999998,,108.69696969696969,0,L06_NIRS-2019-08-18_004_trial08.txt,161.0
100,1408.4479999999999,10.359506300000001,4.85456817,14.201114800000003,-1.5372417299999999,-4.35985536,10.9368365,2.6985658000000003,3.2052740900000005,2.15298895,2.20039037,0.061509918499999996,1.1978514400000002,,108.69696969696969,0,L06_NIRS-2019-08-18_004_trial08.txt,161.0
101,1409.728,9.92076175,4.565490669999999,13.802994000000002,-1.84626469,-4.71310545,10.6420167,2.8022753600000003,3.20628347,2.19824428,2.21767798,0.08971894089999999,1.23395689,,108.69696969696969,0,L06_NIRS-2019-08-18_004_trial08.txt,161.0
102,1411.0080000000003,9.590245019999998,4.363871789999999,13.492228800000001,-2.03614481,-4.93834663,10.4388646,2.88935981,3.2272608600000003,2.27809909,2.25785595,0.13579226000000003,1.27426965,,108.69696969696969,0,L06_NIRS-2019-08-18_004_trial08.txt,161.0
103,1412.288,9.53035598,4.345086759999999,13.421191299999998,-2.0302051499999996,-4.93795786,10.433368,2.9275423700000003,3.26303891,2.36203218,2.3105895299999997,0.18452648400000002,1.3078291199999998,,108.69696969696969,0,L06_NIRS-2019-08-18_004_trial08.txt,161.0
104,1413.568,9.65526385,4.426445509999999,13.5440807,-1.8940455800000002,-4.77097859,10.576352500000002,2.9076079200000002,3.29827633,2.4375511199999997,2.35163588,0.22084459299999998,1.3287230300000001,,108.69696969696969,0,L06_NIRS-2019-08-18_004_trial08.txt,161.0
105,1414.848,9.79161936,4.48033272,13.6651454,-1.7485445000000002,-4.589716210000001,10.7225594,2.8772517899999994,3.31918001,2.49073009,2.3658483100000005,0.22940846600000003,1.33174063,,108.69696969696969,0,L06_NIRS-2019-08-18_004_trial08.txt,161.0
106,1416.1280000000002,9.86843702,4.50362288,13.724902199999997,-1.62507696,-4.4421222899999995,10.838394300000001,2.8756678,3.3285678000000005,2.5174912,2.3598385399999993,0.222305451,1.3281389300000002,,108.69696969696969,0,L06_NIRS-2019-08-18_004_trial08.txt,161.0
107,1417.4080000000001,9.952227080000002,4.57338143,13.8311488,-1.4911510900000002,-4.297153509999999,10.944111,2.8986524499999997,3.3326240299999994,2.51954013,2.34225556,0.211577085,1.3204703500000001,,108.69696969696969,0,L06_NIRS-2019-08-18_004_trial08.txt,161.0
108,1418.6879999999996,10.045979,4.68260199,13.9817879,-1.4037161299999998,-4.20971138,10.982321500000001,2.91920833,3.33215239,2.5059792199999995,2.31880182,0.193458603,1.30334009,,108.69696969696969,0,L06_NIRS-2019-08-18_004_trial08.txt,161.0
109,1419.9679999999998,10.085559800000002,4.77676995,14.085763700000001,-1.44290764,-4.24700687,10.9134538,2.9321444899999998,3.32766151,2.48670112,2.29197618,0.16634572800000003,1.28035884,,108.69696969696969,0,L06_NIRS-2019-08-18_004_trial08.txt,161.0
110,1421.248,10.018426370000002,4.78500985,14.0503287,-1.62802771,-4.41818034,10.7552706,2.94487552,3.31931206,2.4683777499999997,2.27089699,0.143567387,1.2676294300000002,,108.69696969696969,0,L06_NIRS-2019-08-18_004_trial08.txt,161.0
111,1422.5279999999998,9.86263631,4.678607789999999,13.826422100000002,-1.8863111,-4.67601679,10.5551687,2.9542217699999997,3.30661339,2.4566268599999996,2.2644732899999997,0.14508364299999998,1.2776430200000002,,108.69696969696969,0,L06_NIRS-2019-08-18_004_trial08.txt,161.0
112,1423.808,9.677161209999998,4.49731259,13.4718744,-2.12746777,-4.9616025200000005,10.332555600000001,2.95381046,3.2902375499999996,2.4431924,2.2785108299999997,0.16906988100000003,1.3017113400000002,,108.69696969696969,0,L06_NIRS-2019-08-18_004_trial08.txt,161.0
113,1425.0880000000002,9.59794144,4.3775273,13.1888124,-2.23091276,-5.13181248,10.2003976,2.9421709899999997,3.2839607300000004,2.43477933,2.31180331,0.216003956,1.33910546,,108.69696969696969,0,L06_NIRS-2019-08-18_004_trial08.txt,161.0
114,1426.368,9.667773149999999,4.398095109999999,13.167648199999999,-2.13762549,-5.07310139,10.2449792,2.90848555,3.2915868100000005,2.43780792,2.3531600900000003,0.27405417400000004,1.3795724100000002,,108.69696969696969,0,L06_NIRS-2019-08-18_004_trial08.txt,161.0
115,1427.6480000000001,9.7531338,4.480668580000001,13.320218,-1.9320579199999997,-4.861613370000001,10.3977091,2.87244399,3.30695943,2.4402942899999998,2.37862068,0.31886586199999994,1.41403358,,108.69696969696969,0,L06_NIRS-2019-08-18_004_trial08.txt,161.0
116,1428.9280000000003,9.77907293,4.559827810000001,13.4930281,-1.7023468000000002,-4.58049283,10.614375399999998,2.8678513800000003,3.3279167700000003,2.45403423,2.38834457,0.34890894400000005,1.44143624,,108.69696969696969,0,L06_NIRS-2019-08-18_004_trial08.txt,161.0
117,1430.2079999999999,9.71104423,4.5692081899999994,13.5341858,-1.5492882600000002,-4.3458435699999995,10.8118054,2.8933984999999995,3.3451339600000005,2.4669456199999997,2.3875344800000002,0.36322875,1.45922754,,108.69696969696969,0,L06_NIRS-2019-08-18_004_trial08.txt,161.0
118,1431.488,9.692431930000001,4.57078457,13.415815600000002,-1.4539132099999998,-4.179031719999999,11.0096835,2.9257537600000005,3.3556524200000006,2.43630583,2.3788151099999997,0.3647201560000001,1.4704621999999998,,108.69696969696969,0,L06_NIRS-2019-08-18_004_trial08.txt,161.0
119,1432.768,9.838294569999999,4.6525169,13.287543099999999,-1.36648306,-4.03852238,11.223381300000002,2.9129932700000003,3.3542850700000004,2.33477934,2.3675761900000003,0.35487053599999996,1.46693666,,108.69696969696969,0,L06_NIRS-2019-08-18_004_trial08.txt,161.0
120,1434.048,10.11801894,4.806357800000001,13.265209299999999,-1.2730065600000002,-3.90896253,11.4222149,2.8417065399999997,3.3390207100000007,2.17938645,2.3419446,0.332712285,1.4465234500000002,,108.69696969696969,0,L06_NIRS-2019-08-18_004_trial08.txt,161.0
121,1435.328,10.3724385,4.95306641,13.335778099999999,-1.20734308,-3.809044980000001,11.563053199999999,2.7454978999999997,3.3143226999999995,2.0217895500000003,2.30791453,0.30533292900000003,1.41622392,,108.69696969696969,0,L06_NIRS-2019-08-18_004_trial08.txt,161.0
122,1436.6079999999997,10.4721199,5.02296641,13.375976300000001,-1.2057674400000002,-3.7841393400000003,11.6182646,2.6782839400000005,3.2909849099999997,1.8898930399999998,2.2741443000000006,0.279302353,1.3913411699999998,,108.69696969696969,0,L06_NIRS-2019-08-18_004_trial08.txt,161.0
123,1437.888,10.498325900000001,5.06396064,13.411952699999997,-1.22048918,-3.789643350000001,11.633790900000001,2.66264207,3.2827951300000002,1.8361563399999998,2.2614708500000003,0.27224985399999996,1.3772123000000003,,108.69696969696969,0,L06_NIRS-2019-08-18_004_trial08.txt,161.0
124,1439.1680000000001,10.527020100000001,5.08173344,13.462228999999999,-1.28943733,-3.8456624400000003,11.6277808,2.66396059,3.2782137399999995,1.8672531099999996,2.27086327,0.265093443,1.3399376699999999,,108.69696969696969,0,L06_NIRS-2019-08-18_004_trial08.txt,161.0
125,1440.4479999999999,10.5733396,5.11113239,13.483625899999998,-1.4210681299999999,-3.92798088,11.568267199999998,2.66662546,3.2784929999999997,1.9193416499999998,2.26976565,0.22591183499999995,1.3226681499999997,,108.69696969696969,0,L06_NIRS-2019-08-18_004_trial08.txt,161.0
126,1441.536,10.521404857142857,5.124911285714286,13.517230428571429,-1.4980767285714285,-4.101101157142857,11.373520857142859,2.650663114285714,3.2807114571428575,1.9333234428571429,2.2604818857142854,0.23896951714285716,1.3583144571428571,,108.69696969696969,0,L06_NIRS-2019-08-18_004_trial08.txt,161.0
