,time,S1_D2_HbO,S1_D1_HbO,S2_D2_HbO,S3_D4_HbO,S3_D3_HbO,S2_D3_HbO,S1_D2_HbR,S1_D1_HbR,S2_D2_HbR,S3_D4_HbR,S3_D3_HbR,S2_D3_HbR,Var14,score,labelnum,filename,total_time
0,515.6479999999999,0.01861265437,3.82444973,0.0533636859,0.043705099600000005,-0.0018829743700000006,-0.8658671550000001,-0.244429475,-3.2898625200000007,0.009403461222000002,-0.0497346895,-0.0536468826,-1.13561988,,193.84848484848484,1,L11_NIRS-2019-08-23_002_trial04.txt,91.0
1,516.928,0.1284835594,3.9878741499999997,0.12282903909999998,0.06135338110000001,0.061305645199999995,-0.8151772099999999,-0.25105703999999995,-3.3291296100000003,-0.011651193639999998,-0.049871889,-0.04642760159999999,-1.1521120799999998,,193.84848484848484,1,L11_NIRS-2019-08-23_002_trial04.txt,91.0
2,518.2079999999999,0.133995307,3.95939602,0.13990717500000002,0.10257042279999999,0.013461510798999998,-0.854875968,-0.267354585,-3.3551522300000003,-0.038599156499999995,-0.0444848488,-0.058190909699999994,-1.17786687,,193.84848484848484,1,L11_NIRS-2019-08-23_002_trial04.txt,91.0
3,519.488,0.059445094399999995,3.8213455100000004,0.0909274576,0.151476143,-0.10111084590000001,-0.9463990790000001,-0.29027940799999996,-3.36662776,-0.064740063,-0.029785544499999993,-0.0769576901,-1.20556113,,193.84848484848484,1,L11_NIRS-2019-08-23_002_trial04.txt,91.0
4,520.768,-0.01134601089,3.7196168999999997,0.005092085579999998,0.15429892,-0.18486234799999995,-1.031366022,-0.310067416,-3.36858833,-0.08653863640000001,-0.0173482706,-0.08868691340000001,-1.2157488200000002,,193.84848484848484,1,L11_NIRS-2019-08-23_002_trial04.txt,91.0
5,522.048,0.0015234483200000006,3.7521311500000003,-0.045079597799999996,0.1011066711,-0.176399372,-1.05699962,-0.31465114299999997,-3.3572830600000003,-0.09802646759999999,-0.0152747849,-0.0838329937,-1.20105142,,193.84848484848484,1,L11_NIRS-2019-08-23_002_trial04.txt,91.0
6,523.3279999999999,0.102848326,3.88305784,-0.012606257299999998,0.03587304300000001,-0.08574221220000001,-0.980688168,-0.29594354199999995,-3.3279354,-0.10450977700000001,-0.023719078499999997,-0.0634896796,-1.19230377,,193.84848484848484,1,L11_NIRS-2019-08-23_002_trial04.txt,91.0
7,524.6080000000001,0.19951886599999996,3.95374866,0.053261582499999995,-0.00707687465,0.007922954358,-0.8751539599999999,-0.267985542,-3.28271499,-0.10756607399999998,-0.032761481200000005,-0.03530866989999999,-1.17956354,,193.84848484848484,1,L11_NIRS-2019-08-23_002_trial04.txt,91.0
8,525.888,0.186646354,3.868347670000001,0.047667265,-0.0263645823,0.02501262352,-0.848004931,-0.247140775,-3.2265247499999994,-0.105961469,-0.0308119087,-0.0187786205,-1.16663613,,193.84848484848484,1,L11_NIRS-2019-08-23_002_trial04.txt,91.0
9,527.1679999999999,0.08462966699999999,3.7119551300000007,-0.068076605513,-0.0367317089,-0.0452340076,-0.9316638879999999,-0.22903449199999998,-3.16077613,-0.102298593,-0.0199152906,-0.014895224700000001,-1.16159151,,193.84848484848484,1,L11_NIRS-2019-08-23_002_trial04.txt,91.0
10,528.448,-0.03394376241,3.55843268,-0.24058891499999996,-0.0706547931,-0.165013792,-1.0938836699999999,-0.213702026,-3.10597747,-0.0947258386,-0.0039044570489999994,-0.0250773845,-1.15483294,,193.84848484848484,1,L11_NIRS-2019-08-23_002_trial04.txt,91.0
11,529.7280000000001,-0.02312062235,3.6049051700000008,-0.3259540209999999,-0.136484434,-0.21992684299999996,-1.18257993,-0.14268854199999997,-3.0004644999999996,-0.0681386386,0.012815938369999998,-0.017973555300000006,-1.1270472800000002,,193.84848484848484,1,L11_NIRS-2019-08-23_002_trial04.txt,91.0
12,531.008,0.100132297,3.7906934199999993,-0.23605118399999997,-0.19004329799999997,-0.163308155,-1.1151553,-0.04564056846,-2.86934712,-0.020054982548000002,0.0315352976,0.01780241091,-1.0800349900000001,,193.84848484848484,1,L11_NIRS-2019-08-23_002_trial04.txt,91.0
13,532.2879999999999,0.306990835,4.11116587,0.015638275190000002,-0.1246332447,0.011393142520000003,-0.8719536590000001,0.05428784799999999,-2.7381900200000002,0.0409463101,0.059608356800000005,0.0639984451,-1.03888749,,193.84848484848484,1,L11_NIRS-2019-08-23_002_trial04.txt,91.0
14,533.568,0.544708659,4.48238494,0.33295593,0.11984318489999998,0.238489115,-0.552364057,0.11871704920000001,-2.6576071400000005,0.0963227729,0.102336417,0.08905736649999998,-1.0023483930000001,,193.84848484848484,1,L11_NIRS-2019-08-23_002_trial04.txt,91.0
15,534.848,0.747697004,4.81720694,0.559234512,0.463783161,0.42669003400000005,-0.305360555,0.142803909,-2.62849716,0.128336985,0.137612821,0.0882196732,-0.9918630989999999,,193.84848484848484,1,L11_NIRS-2019-08-23_002_trial04.txt,91.0
16,536.1279999999999,0.872788933,5.027910149999999,0.6251985039999999,0.7896677299999999,0.51334512,-0.217344747,0.135720961,-2.63989983,0.130997725,0.144080258,0.0663797851,-1.007662641,,193.84848484848484,1,L11_NIRS-2019-08-23_002_trial04.txt,91.0
17,537.408,0.8703637280000001,4.96812827,0.5323468189999999,0.9772399890000001,0.4712254230000001,-0.31403926399999993,0.09757331690000001,-2.68746954,0.1059416159,0.11251130809999998,0.026375691870000002,-1.0424657,,193.84848484848484,1,L11_NIRS-2019-08-23_002_trial04.txt,91.0
18,538.688,0.7923528209999999,4.771698519999999,0.37996314600000003,0.996516418,0.373890373,-0.47761461299999997,0.0826483125,-2.70065184,0.07556952490000002,0.052589982800000004,-0.005841128731,-1.07213442,,193.84848484848484,1,L11_NIRS-2019-08-23_002_trial04.txt,91.0
19,539.968,0.65365385,4.52655457,0.233973691,0.8743665310000001,0.26670103999999994,-0.632679602,0.07552690339999998,-2.6850086899999996,0.0505740155,-0.024681254210000003,-0.0144316269,-1.10070165,,193.84848484848484,1,L11_NIRS-2019-08-23_002_trial04.txt,91.0
20,541.2479999999999,0.5659143630000001,4.420784520000001,0.19154591199999998,0.735617565,0.23429220199999995,-0.6942600009999998,0.0738090924,-2.65909422,0.043133183699999994,-0.0957285284,-0.0094967561,-1.1165720499999998,,193.84848484848484,1,L11_NIRS-2019-08-23_002_trial04.txt,91.0
21,542.528,0.5826514819999999,4.44687309,0.30246003899999996,0.682612436,0.294179765,-0.6496688220000001,0.05914928220000001,-2.6730765899999995,0.049634226,-0.141913256,-0.00894892601,-1.1146350799999998,,193.84848484848484,1,L11_NIRS-2019-08-23_002_trial04.txt,91.0
22,543.808,0.673657142,4.549763499999999,0.501066745,0.6943331340000001,0.422666157,-0.5348486530000001,0.050302817500000006,-2.7029899600000005,0.0571581664,-0.1813041,-0.008448120130000002,-1.1189412300000001,,193.84848484848484,1,L11_NIRS-2019-08-23_002_trial04.txt,91.0
23,545.088,0.7522914319999999,4.65149512,0.6675176859999998,0.704398948,0.5321023060000001,-0.43915472199999994,0.0464867955,-2.72393618,0.05870215759999999,-0.22583037700000003,-0.0164805758,-1.1378045699999997,,193.84848484848484,1,L11_NIRS-2019-08-23_002_trial04.txt,91.0
24,546.368,0.7839754590000001,4.73981866,0.7444385340000002,0.7041802629999999,0.5795581559999999,-0.396405717,0.0389389372,-2.7193787499999997,0.0490671668,-0.26972923600000004,-0.037045804800000005,-1.1736109200000002,,193.84848484848484,1,L11_NIRS-2019-08-23_002_trial04.txt,91.0
25,547.6479999999999,0.8053552880000001,4.853865149999999,0.7394745599999999,0.7269174939999999,0.566834424,-0.39142017100000004,0.0319320976,-2.69359444,0.029809332,-0.306217599,-0.06685855249999999,-1.2227223499999997,,193.84848484848484,1,L11_NIRS-2019-08-23_002_trial04.txt,91.0
26,548.928,0.8384898179999999,4.9902384,0.682319282,0.792168573,0.523860738,-0.39691462,0.0261701949,-2.6567435300000004,0.0005913690470000004,-0.337052007,-0.1006478291,-1.28862054,,193.84848484848484,1,L11_NIRS-2019-08-23_002_trial04.txt,91.0
27,550.2079999999999,0.8804917050000001,5.10071522,0.631319757,0.897182363,0.49912558900000004,-0.40007380899999995,0.0183161492,-2.6241002399999998,-0.027583094600000004,-0.36357231100000004,-0.13692553600000001,-1.34304677,,193.84848484848484,1,L11_NIRS-2019-08-23_002_trial04.txt,91.0
28,551.488,0.903748562,5.143248260000001,0.6360031439999999,1.0372370510000002,0.5296669740000001,-0.38382896799999994,0.0039141417823,-2.61249191,-0.0438890781,-0.382271355,-0.161491909,-1.37343413,,193.84848484848484,1,L11_NIRS-2019-08-23_002_trial04.txt,91.0
29,552.768,0.910625866,5.1545546799999995,0.6743301970000001,1.14393579,0.602350356,-0.336638499,-0.00820986494,-2.6202145299999997,-0.05970820669999999,-0.4134161559999999,-0.18248451999999998,-1.39934396,,193.84848484848484,1,L11_NIRS-2019-08-23_002_trial04.txt,91.0
30,554.048,0.9104454909999999,5.1831010399999995,0.7057739439999999,1.1535457199999999,0.6652557989999999,-0.283919127,-0.018732484900000002,-2.6448476999999997,-0.0830274453,-0.46840820999999994,-0.202628369,-1.4305402899999997,,193.84848484848484,1,L11_NIRS-2019-08-23_002_trial04.txt,91.0
31,555.3279999999999,0.9048077699999999,5.20834755,0.7175914889999999,1.0668442299999998,0.687958889,-0.245247712,-0.029820071599999998,-2.6849438299999995,-0.1125514416,-0.5379227240000001,-0.22899254400000002,-1.46688914,,193.84848484848484,1,L11_NIRS-2019-08-23_002_trial04.txt,91.0
32,556.6080000000001,0.913739026,5.2058061,0.730974928,0.9478443719999999,0.667854485,-0.22195637699999998,-0.042122312300000006,-2.72970865,-0.14318560500000002,-0.605739821,-0.259814605,-1.5091918899999999,,193.84848484848484,1,L11_NIRS-2019-08-23_002_trial04.txt,91.0
33,557.888,0.9109530789999999,5.1395034100000005,0.7468674229999999,0.8465218520000001,0.6237253880000001,-0.21182037400000003,-0.0677384689,-2.77979902,-0.17793155,-0.6601076269999999,-0.2961013520000001,-1.5595957100000002,,193.84848484848484,1,L11_NIRS-2019-08-23_002_trial04.txt,91.0
34,559.1679999999999,0.8674091519999999,5.02191596,0.739768234,0.7750868470000001,0.564969423,-0.24084045999999998,-0.10406712150000001,-2.83436751,-0.212015935,-0.6967867130000001,-0.33252304199999994,-1.60229274,,193.84848484848484,1,L11_NIRS-2019-08-23_002_trial04.txt,91.0
35,560.448,0.81480303,4.925049,0.723470542,0.756173668,0.5308297399999999,-0.278072043,-0.14141528399999997,-2.8904680399999996,-0.23838824199999994,-0.707594557,-0.3586135670000001,-1.62708893,,193.84848484848484,1,L11_NIRS-2019-08-23_002_trial04.txt,91.0
36,561.7280000000001,0.81192446,4.909779090000001,0.712746391,0.7575931200000001,0.534371216,-0.28387784000000005,-0.17237886000000002,-2.94520765,-0.26254614800000003,-0.706442544,-0.38027667200000004,-1.6454492100000002,,193.84848484848484,1,L11_NIRS-2019-08-23_002_trial04.txt,91.0
37,563.008,0.8609277740000001,4.9702533099999995,0.7338959270000001,0.751135959,0.57085284,-0.24545805400000004,-0.192238609,-2.99781486,-0.285440782,-0.70441732,-0.395500377,-1.65868459,,193.84848484848484,1,L11_NIRS-2019-08-23_002_trial04.txt,91.0
38,564.2879999999999,0.9052187479999999,4.9950018300000005,0.7746006119999999,0.7182037,0.601297089,-0.193769939,-0.211236259,-3.05977603,-0.30769759699999993,-0.703627506,-0.40249954999999993,-1.67000831,,193.84848484848484,1,L11_NIRS-2019-08-23_002_trial04.txt,91.0
39,565.568,0.9171946279999998,4.953765799999999,0.8079211919999999,0.674331876,0.606474792,-0.17233483,-0.23419196800000003,-3.1212682700000003,-0.32992836299999995,-0.700454665,-0.409788979,-1.6811115300000001,,193.84848484848484,1,L11_NIRS-2019-08-23_002_trial04.txt,91.0
40,566.848,0.9173252969999999,4.961928979999999,0.844579497,0.669129635,0.587815951,-0.175446648,-0.24756282800000004,-3.1295186,-0.34091208,-0.6806867249999999,-0.4122606569999999,-1.6854467400000002,,193.84848484848484,1,L11_NIRS-2019-08-23_002_trial04.txt,91.0
41,568.1279999999999,0.9121770569999998,5.02032577,0.854686684,0.6831349720000001,0.5396061750000001,-0.212748714,-0.253201026,-3.10366622,-0.34894505200000003,-0.646681639,-0.406417332,-1.68073111,,193.84848484848484,1,L11_NIRS-2019-08-23_002_trial04.txt,91.0
42,569.408,0.935235108,5.12739595,0.881633592,0.7065623520000001,0.49126259299999997,-0.247809169,-0.25470444400000003,-3.07409615,-0.353596097,-0.603838852,-0.38863284300000006,-1.66752055,,193.84848484848484,1,L11_NIRS-2019-08-23_002_trial04.txt,91.0
43,570.688,0.9975421319999999,5.2820271199999995,0.9764968280000001,0.7322389749999999,0.49044710599999997,-0.22509375599999998,-0.251512498,-3.0539074299999998,-0.35156025599999996,-0.554988226,-0.360397519,-1.6457780899999999,,193.84848484848484,1,L11_NIRS-2019-08-23_002_trial04.txt,91.0
44,571.968,1.05854136,5.4264458300000005,1.11197154,0.7390119569999999,0.525322448,-0.156608472,-0.253617482,-3.05573986,-0.34708598199999996,-0.510552801,-0.32913229299999996,-1.61280141,,193.84848484848484,1,L11_NIRS-2019-08-23_002_trial04.txt,91.0
45,573.2479999999999,1.06213201,5.459186529999999,1.19180056,0.695027481,0.5366430679999998,-0.113192128,-0.273979163,-3.0919328299999997,-0.35060591,-0.47707313100000004,-0.299735607,-1.5831833199999998,,193.84848484848484,1,L11_NIRS-2019-08-23_002_trial04.txt,91.0
46,574.528,1.016368962,5.37840742,1.17121645,0.615378531,0.48428724800000006,-0.147485118,-0.312088624,-3.1580546800000002,-0.368476875,-0.4523562630000001,-0.285165794,-1.5638024700000002,,193.84848484848484,1,L11_NIRS-2019-08-23_002_trial04.txt,91.0
47,575.808,0.986882716,5.31829203,1.1039860400000001,0.566064604,0.399414732,-0.21213670899999998,-0.33512673,-3.1992005199999998,-0.38369946499999996,-0.42283251699999996,-0.27580987599999995,-1.5507432,,193.84848484848484,1,L11_NIRS-2019-08-23_002_trial04.txt,91.0
48,577.088,0.978271608,5.25942403,1.03519535,0.536780831,0.3198930240000001,-0.271810239,-0.347602973,-3.2273047999999998,-0.398182542,-0.388660086,-0.276364225,-1.5382865300000002,,193.84848484848484,1,L11_NIRS-2019-08-23_002_trial04.txt,91.0
49,578.368,0.970996257,5.153606870000001,0.998173229,0.476576306,0.24860485,-0.310815939,-0.359554008,-3.26941227,-0.409392737,-0.360575489,-0.275712466,-1.52918571,,193.84848484848484,1,L11_NIRS-2019-08-23_002_trial04.txt,91.0
50,579.6479999999999,0.9732707530000001,5.057187659999999,1.0229352099999998,0.40328879800000006,0.222138057,-0.310312744,-0.36977331,-3.32419751,-0.4077927850000001,-0.3346376139999999,-0.27518365,-1.5133269999999999,,193.84848484848484,1,L11_NIRS-2019-08-23_002_trial04.txt,91.0
51,580.928,0.9876291689999999,5.02145527,1.0455279499999999,0.33404085799999994,0.228242887,-0.30062263199999995,-0.37352515900000005,-3.36849311,-0.39688567199999997,-0.312609031,-0.26906949199999997,-1.4932498300000001,,193.84848484848484,1,L11_NIRS-2019-08-23_002_trial04.txt,91.0
52,582.2079999999999,0.992573478,5.0088393799999995,1.009017472,0.27394725100000006,0.233499254,-0.326831266,-0.36702112500000006,-3.3858052200000004,-0.381799234,-0.291895625,-0.258689062,-1.4753739099999998,,193.84848484848484,1,L11_NIRS-2019-08-23_002_trial04.txt,91.0
53,583.488,0.9691190479999999,4.95617603,0.9064569800000001,0.224759537,0.18321281000000003,-0.412309066,-0.352977359,-3.3787024000000003,-0.36685921,-0.26753862,-0.253608771,-1.4593900999999998,,193.84848484848484,1,L11_NIRS-2019-08-23_002_trial04.txt,91.0
54,584.768,0.92877654,4.86640199,0.776165752,0.186087825,0.08180853540000001,-0.524084809,-0.32648175999999995,-3.3527486100000004,-0.356640693,-0.239133283,-0.25007121,-1.45596896,,193.84848484848484,1,L11_NIRS-2019-08-23_002_trial04.txt,91.0
55,586.048,0.8815645319999998,4.75418673,0.668378564,0.13523429399999998,-0.025429388759999994,-0.61181044,-0.296648209,-3.3150801299999997,-0.3480563179999999,-0.20938277800000002,-0.25083490499999994,-1.4560528099999999,,193.84848484848484,1,L11_NIRS-2019-08-23_002_trial04.txt,91.0
56,587.3279999999999,0.8278005439999999,4.635763219999999,0.5883653219999999,0.046410960517,-0.11272325909999999,-0.6636382919999999,-0.26889870599999993,-3.27865039,-0.33896110100000004,-0.19061304299999998,-0.24564016300000002,-1.45756218,,193.84848484848484,1,L11_NIRS-2019-08-23_002_trial04.txt,91.0
57,588.6080000000001,0.786049524,4.56663419,0.546245307,-0.0438398819,-0.14316524,-0.6757124299999999,-0.247210347,-3.2485124499999998,-0.32597351900000004,-0.182199697,-0.23073041500000002,-1.45753962,,193.84848484848484,1,L11_NIRS-2019-08-23_002_trial04.txt,91.0
58,589.888,0.799551143,4.620124989999999,0.557025407,-0.0690415127,-0.0733399668,-0.635494042,-0.22203806200000004,-3.20629963,-0.31088217500000004,-0.18048783100000002,-0.20535625899999999,-1.45180599,,193.84848484848484,1,L11_NIRS-2019-08-23_002_trial04.txt,91.0
59,591.1679999999999,0.8702828819999999,4.753700520000001,0.6178745830000001,-0.021944085300000006,0.06403338467,-0.547943288,-0.196047081,-3.14813367,-0.29527547099999996,-0.180816547,-0.173985263,-1.4534739799999998,,193.84848484848484,1,L11_NIRS-2019-08-23_002_trial04.txt,91.0
60,592.4480000000001,0.9623767529999998,4.87814622,0.6853887200000001,0.0487096831,0.19600704500000002,-0.450450105,-0.171020174,-3.08682781,-0.282249476,-0.18582907499999998,-0.155741788,-1.4562860300000002,,193.84848484848484,1,L11_NIRS-2019-08-23_002_trial04.txt,91.0
61,593.728,1.002145365,4.902690390000001,0.6924354500000001,0.07913626939999999,0.23136609999999996,-0.410456754,-0.149484134,-3.0380552,-0.280076689,-0.194688774,-0.155327933,-1.47223749,,193.84848484848484,1,L11_NIRS-2019-08-23_002_trial04.txt,91.0
62,595.008,0.9779155129999999,4.865299609999999,0.6429531930000001,0.06148370369999999,0.183243017,-0.422558479,-0.132167054,-2.99301451,-0.284470783,-0.20631293299999998,-0.168074466,-1.49814819,,193.84848484848484,1,L11_NIRS-2019-08-23_002_trial04.txt,91.0
63,596.2880000000001,0.8976229060000002,4.80897174,0.5542322110000001,0.01389912331,0.0902408844,-0.48852172299999996,-0.11531455800000001,-2.9506903300000005,-0.28939710899999993,-0.2246867,-0.18593597099999998,-1.5239013,,193.84848484848484,1,L11_NIRS-2019-08-23_002_trial04.txt,91.0
64,597.568,0.8128540129999999,4.77879756,0.480488212,-0.0210779739,0.0208960007,-0.566511781,-0.09894286240000001,-2.91748826,-0.293374419,-0.246054418,-0.19785239100000002,-1.54417893,,193.84848484848484,1,L11_NIRS-2019-08-23_002_trial04.txt,91.0
65,598.848,0.8101083579999999,4.82556494,0.49926496,0.014896283707799999,0.0557152961,-0.571888927,-0.0825293235,-2.89150888,-0.291218843,-0.26512725000000004,-0.203403085,-1.5556157400000001,,193.84848484848484,1,L11_NIRS-2019-08-23_002_trial04.txt,91.0
66,600.1279999999999,0.9193156419999999,4.95373672,0.634207113,0.128609712,0.20741709999999997,-0.4384393789999999,-0.0688904383,-2.86734373,-0.28932005200000005,-0.284255702,-0.202875768,-1.57321146,,193.84848484848484,1,L11_NIRS-2019-08-23_002_trial04.txt,91.0
67,601.4080000000001,1.055645388,5.080348120000001,0.787894549,0.254378651,0.39105795499999996,-0.243702066,-0.0581751192,-2.84227621,-0.29348335799999997,-0.30996862799999997,-0.205614588,-1.5929975000000003,,193.84848484848484,1,L11_NIRS-2019-08-23_002_trial04.txt,91.0
68,602.688,1.11702477,5.13675179,0.876899192,0.34746651999999995,0.505765555,-0.09630068769999998,-0.051408737999999995,-2.80113445,-0.302049735,-0.33772182900000003,-0.22164720499999996,-1.61990801,,193.84848484848484,1,L11_NIRS-2019-08-23_002_trial04.txt,91.0
69,603.968,1.045004926,5.0703514400000005,0.8487596820000001,0.37290691,0.490766095,-0.0862026422,-0.0495144375,-2.7440382100000003,-0.31328532600000003,-0.36384018100000004,-0.249931578,-1.6570897499999997,,193.84848484848484,1,L11_NIRS-2019-08-23_002_trial04.txt,91.0
70,605.2479999999999,0.880653856,4.91887541,0.721031888,0.34084627199999995,0.35735091900000004,-0.237226302,-0.0543735241,-2.68028056,-0.32471213099999996,-0.38954528499999996,-0.289113483,-1.6888787500000002,,193.84848484848484,1,L11_NIRS-2019-08-23_002_trial04.txt,91.0
71,606.0160000000001,0.760909905,4.79154615,0.615530355,0.29402301,0.24996788999999997,-0.380330385,-0.05811474,-2.6479449500000003,-0.3302099,-0.403583615,-0.31553005,-1.6999008,,193.84848484848484,1,L11_NIRS-2019-08-23_002_trial04.txt,91.0
