,time,S1_D2_HbO,S1_D1_HbO,S2_D2_HbO,S3_D4_HbO,S3_D3_HbO,S2_D3_HbO,S1_D2_HbR,S1_D1_HbR,S2_D2_HbR,S3_D4_HbR,S3_D3_HbR,S2_D3_HbR,Var14,score,labelnum,filename,total_time
0,648.896,-0.290315924,3.3758016599999996,0.04225731680000001,-0.02849590873,-0.553181774,-1.2860167799999997,-0.32582583000000004,-3.0110946,-0.149664996,-0.0051176721952000005,-0.22060239199999998,-1.5470561799999998,,212.84848484848484,1,L11_NIRS-2019-08-23_002_trial05.txt,72.0
1,650.176,-0.310492833,3.55611831,0.024251856699999998,-0.1009726763,-0.545926131,-1.26498095,-0.23871488299999996,-3.1607882400000005,-0.1088103981,0.00840814561,-0.182320745,-1.4968855300000001,,212.84848484848484,1,L11_NIRS-2019-08-23_002_trial05.txt,72.0
2,651.456,-0.232770482,3.8503384600000006,0.1305735145,-0.0846120591,-0.36286005699999996,-1.0523947550000001,-0.160281393,-3.34436606,-0.0646225498,0.023314843700000004,-0.128285116,-1.4394439399999999,,212.84848484848484,1,L11_NIRS-2019-08-23_002_trial05.txt,72.0
3,652.736,-0.06792824845999999,4.19959923,0.352486368,0.03012825767,-0.09166381062999998,-0.731156149,-0.10296470799999999,-3.4935993000000005,-0.019661318832,0.0391624757,-0.0743227284,-1.3851259500000002,,212.84848484848484,1,L11_NIRS-2019-08-23_002_trial05.txt,72.0
4,654.016,0.0977454186,4.46230495,0.578013292,0.178267746,0.1575277243,-0.44437328000000004,-0.0670612219,-3.5368336099999995,0.01742046918,0.0449820259,-0.047791310999999996,-1.3559682700000002,,212.84848484848484,1,L11_NIRS-2019-08-23_002_trial05.txt,72.0
5,655.296,0.17041537499999998,4.49058837,0.679456383,0.284246828,0.285799247,-0.32291784500000004,-0.050535780100000004,-3.44636002,0.0361243023,0.032832797999999996,-0.052137613000000006,-1.35993493,,212.84848484848484,1,L11_NIRS-2019-08-23_002_trial05.txt,72.0
6,656.576,0.16728922100000002,4.48138442,0.6426627790000001,0.337066303,0.272350023,-0.365890404,-0.025754041100000003,-3.3823494500000004,0.0469606224,0.011698078850000002,-0.0677069386,-1.37631204,,212.84848484848484,1,L11_NIRS-2019-08-23_002_trial05.txt,72.0
7,657.856,0.13122519800000002,4.462829309999999,0.5264679879999999,0.35984278,0.182800191,-0.495599608,0.008799084260000001,-3.32029982,0.0557020035,-0.009703679069000002,-0.0804678984,-1.38914339,,212.84848484848484,1,L11_NIRS-2019-08-23_002_trial05.txt,72.0
8,659.1360000000001,0.10152096429999999,4.44641393,0.381500648,0.347753478,0.0941250152,-0.625185356,0.056892607299999995,-3.2576398700000007,0.0677554764,-0.0305359906,-0.0788989802,-1.38341878,,212.84848484848484,1,L11_NIRS-2019-08-23_002_trial05.txt,72.0
9,660.4159999999999,0.12040464599999998,4.46821733,0.27683876399999996,0.298036203,0.06600875990000002,-0.666858012,0.1116816719,-3.20168259,0.0816247375,-0.0578338496,-0.053809008400000004,-1.36454896,,212.84848484848484,1,L11_NIRS-2019-08-23_002_trial05.txt,72.0
10,661.696,0.19939112099999998,4.5426628099999995,0.25425118599999996,0.250248821,0.1065137894,-0.627530137,0.165630391,-3.1528502200000004,0.0994794326,-0.0887391084,-0.008229342660000001,-1.3307729599999998,,212.84848484848484,1,L11_NIRS-2019-08-23_002_trial05.txt,72.0
11,662.9759999999999,0.30443711,4.621270109999999,0.263682262,0.24222013799999997,0.174745761,-0.57812735,0.20526090300000002,-3.1186393299999997,0.11225712000000002,-0.119446889,0.0256475844,-1.30998603,,212.84848484848484,1,L11_NIRS-2019-08-23_002_trial05.txt,72.0
12,664.2560000000001,0.38866467600000004,4.655215760000001,0.24772815600000003,0.270907675,0.205751465,-0.592019873,0.22563270800000002,-3.11032436,0.110699798,-0.148147703,0.0437375331,-1.30550388,,212.84848484848484,1,L11_NIRS-2019-08-23_002_trial05.txt,72.0
13,665.536,0.447334837,4.66005464,0.22552239799999999,0.348427151,0.19340204,-0.6436974310000001,0.231466012,-3.1102834799999997,0.1032224146,-0.16703326000000002,0.0536342525,-1.30837131,,212.84848484848484,1,L11_NIRS-2019-08-23_002_trial05.txt,72.0
14,666.816,0.49543091599999994,4.69051799,0.22818741299999998,0.45356758899999994,0.188546175,-0.6710450920000001,0.23060834499999996,-3.10051027,0.0934374933,-0.182906316,0.050444208000000004,-1.31603531,,212.84848484848484,1,L11_NIRS-2019-08-23_002_trial05.txt,72.0
15,668.0959999999999,0.4908055620000001,4.663554069999999,0.21372098199999998,0.494567525,0.16909560199999998,-0.683369777,0.219474554,-3.09408562,0.0798151328,-0.20914178300000003,0.0437505602,-1.32570486,,212.84848484848484,1,L11_NIRS-2019-08-23_002_trial05.txt,72.0
16,669.376,0.41268533500000004,4.52273643,0.1343930577,0.40712807599999995,0.1123183606,-0.727569521,0.19827963899999998,-3.1013781699999994,0.057000349000000006,-0.253205996,0.0361703176,-1.34235637,,212.84848484848484,1,L11_NIRS-2019-08-23_002_trial05.txt,72.0
17,670.6560000000001,0.3206362479999999,4.366973740000001,0.01601424288,0.260822573,0.0449217155,-0.8122124670000002,0.176633773,-3.1189421200000003,0.032588614599999996,-0.300789452,0.0279807366,-1.3513818300000002,,212.84848484848484,1,L11_NIRS-2019-08-23_002_trial05.txt,72.0
18,671.9359999999999,0.271051569,4.26047935,-0.10530200540000001,0.13525752230000002,-0.0281729894172,-0.9336455449999999,0.161011085,-3.1470463300000002,0.0056679993299999995,-0.338166485,0.01082258782,-1.3610256399999998,,212.84848484848484,1,L11_NIRS-2019-08-23_002_trial05.txt,72.0
19,673.2160000000001,0.28544087399999996,4.2199143800000005,-0.14700594,0.08445127230000002,-0.10725961660000001,-1.035329269,0.14655546700000002,-3.18586179,-0.0197877909,-0.351037481,-0.004877491046,-1.37347464,,212.84848484848484,1,L11_NIRS-2019-08-23_002_trial05.txt,72.0
20,674.4959999999999,0.366266737,4.24072509,-0.05237810193,0.1197260166,-0.140065569,-1.026741634,0.13296285,-3.22828888,-0.0362667317,-0.34248468000000004,-0.0110690628,-1.38158628,,212.84848484848484,1,L11_NIRS-2019-08-23_002_trial05.txt,72.0
21,675.776,0.47935676000000005,4.2848220900000005,0.1279451766,0.193876305,-0.0914447493,-0.887339116,0.11294811669999998,-3.2780772199999992,-0.0546594189,-0.32851396,-0.0224855774,-1.4004138400000001,,212.84848484848484,1,L11_NIRS-2019-08-23_002_trial05.txt,72.0
22,677.056,0.543124398,4.3293257999999994,0.28907319699999995,0.288928041,-0.0011238748800000025,-0.718980544,0.07531346619999998,-3.3229988300000004,-0.07122686069999999,-0.30318346499999993,-0.0423242115,-1.41697773,,212.84848484848484,1,L11_NIRS-2019-08-23_002_trial05.txt,72.0
23,678.336,0.523807,4.37229506,0.3492295309999999,0.38110181,0.0846986234,-0.6280873340000002,0.02320927096,-3.3512152199999994,-0.0854570646,-0.266548069,-0.055353421800000004,-1.4297853799999998,,212.84848484848484,1,L11_NIRS-2019-08-23_002_trial05.txt,72.0
24,679.616,0.46233058099999996,4.437875760000001,0.34052752899999994,0.48865180499999994,0.140880799,-0.6369377440000001,-0.03012927252,-3.36293926,-0.0955361312,-0.21898775500000003,-0.06327030079999998,-1.4340117700000001,,212.84848484848484,1,L11_NIRS-2019-08-23_002_trial05.txt,72.0
25,680.896,0.39919132000000007,4.5077700499999995,0.330466501,0.605921792,0.158561672,-0.694193502,-0.0709188431,-3.3691535299999997,-0.10415723900000003,-0.169237647,-0.06985601160000002,-1.42759567,,212.84848484848484,1,L11_NIRS-2019-08-23_002_trial05.txt,72.0
26,682.176,0.3434422260000001,4.5509281800000005,0.36106154,0.6969913190000001,0.138529776,-0.7225263179999999,-0.10600999829999999,-3.3780415399999995,-0.10984738100000002,-0.12652753199999997,-0.07219392670000001,-1.42998699,,212.84848484848484,1,L11_NIRS-2019-08-23_002_trial05.txt,72.0
27,683.456,0.310139771,4.5951778,0.42191914399999997,0.731860112,0.11181937,-0.6947756070000001,-0.132402409,-3.3980144999999995,-0.117931176,-0.10142295099999998,-0.0693840746,-1.43268698,,212.84848484848484,1,L11_NIRS-2019-08-23_002_trial05.txt,72.0
28,684.736,0.329887347,4.667274680000001,0.4542744310000001,0.681528992,0.0964180768,-0.6254579790000001,-0.143539617,-3.43762847,-0.142455384,-0.10788122100000001,-0.0703030934,-1.4564344,,212.84848484848484,1,L11_NIRS-2019-08-23_002_trial05.txt,72.0
29,686.016,0.41345297299999995,4.81130637,0.46577317100000004,0.607215369,0.12672197000000002,-0.554960872,-0.143386238,-3.4790189999999996,-0.17383481299999998,-0.128460521,-0.08506923400000002,-1.4889118700000001,,212.84848484848484,1,L11_NIRS-2019-08-23_002_trial05.txt,72.0
30,687.296,0.511661002,4.96205975,0.4723791869999999,0.5353006600000001,0.17965337,-0.514612318,-0.14092222100000001,-3.51949259,-0.206392264,-0.150025834,-0.09668296629999999,-1.5191387300000003,,212.84848484848484,1,L11_NIRS-2019-08-23_002_trial05.txt,72.0
31,688.576,0.584056578,5.02887932,0.48501263000000006,0.4560953389999999,0.20736012399999998,-0.49549647199999985,-0.14214592199999998,-3.5652010899999995,-0.23823918500000002,-0.17251737099999997,-0.109235041,-1.5558009099999999,,212.84848484848484,1,L11_NIRS-2019-08-23_002_trial05.txt,72.0
32,689.856,0.613398529,5.03418585,0.5257052339999999,0.40973618300000003,0.21400356999999998,-0.46925026899999994,-0.160638767,-3.6237914599999996,-0.270580188,-0.19014491900000002,-0.13514380099999998,-1.59030699,,212.84848484848484,1,L11_NIRS-2019-08-23_002_trial05.txt,72.0
33,691.1360000000001,0.6043888040000001,5.0098939,0.5669169319999999,0.39976581199999994,0.198270981,-0.43035108399999994,-0.20317974100000002,-3.69880823,-0.301807786,-0.19824399,-0.169165644,-1.6303515200000003,,212.84848484848484,1,L11_NIRS-2019-08-23_002_trial05.txt,72.0
34,692.4159999999999,0.5820983249999999,4.95975807,0.563829995,0.39364034800000003,0.16706455099999998,-0.435251565,-0.25517646699999996,-3.7793879400000003,-0.33430444000000004,-0.20042151000000002,-0.20460655099999997,-1.66789476,,212.84848484848484,1,L11_NIRS-2019-08-23_002_trial05.txt,72.0
35,693.6959999999999,0.5724564029999999,4.88144546,0.49909985199999995,0.363620679,0.11832311200000001,-0.5099636350000001,-0.30141845700000003,-3.8489254500000003,-0.368287669,-0.205572768,-0.24152152200000004,-1.71211915,,212.84848484848484,1,L11_NIRS-2019-08-23_002_trial05.txt,72.0
36,694.9759999999999,0.605529282,4.825045979999999,0.452238713,0.356134657,0.10871921249999998,-0.5855090719999999,-0.33015259399999997,-3.89468491,-0.393263774,-0.21118335300000002,-0.267415589,-1.7429608399999998,,212.84848484848484,1,L11_NIRS-2019-08-23_002_trial05.txt,72.0
37,696.2560000000001,0.673783654,4.81664308,0.48991737499999993,0.36990998100000005,0.159501664,-0.5754024799999999,-0.331836661,-3.9086963,-0.40275131900000005,-0.21583816899999997,-0.27210207900000005,-1.7517512100000001,,212.84848484848484,1,L11_NIRS-2019-08-23_002_trial05.txt,72.0
38,697.5360000000001,0.7180562170000002,4.8330709999999995,0.5738714339999998,0.37781841499999996,0.234814298,-0.48411577100000003,-0.32226040200000006,-3.9006498800000005,-0.398064048,-0.230045322,-0.26342062099999997,-1.75280438,,212.84848484848484,1,L11_NIRS-2019-08-23_002_trial05.txt,72.0
39,698.8159999999999,0.715191139,4.8987251999999994,0.652733,0.403602804,0.30906402,-0.37747861699999996,-0.3180639659999999,-3.88861462,-0.38270815299999994,-0.250933011,-0.258759069,-1.7428547600000002,,212.84848484848484,1,L11_NIRS-2019-08-23_002_trial05.txt,72.0
40,700.0959999999999,0.717629533,5.0215213400000005,0.711380707,0.46604087000000005,0.357340873,-0.30512415000000004,-0.3185879,-3.88428136,-0.36434099799999997,-0.277356273,-0.258111724,-1.73175531,,212.84848484848484,1,L11_NIRS-2019-08-23_002_trial05.txt,72.0
41,701.376,0.7419514600000001,5.10724396,0.736431259,0.5253876900000001,0.369452427,-0.31244958500000003,-0.31442147299999995,-3.8874639799999997,-0.35046347000000005,-0.31087752800000007,-0.267434248,-1.7200946599999998,,212.84848484848484,1,L11_NIRS-2019-08-23_002_trial05.txt,72.0
42,702.656,0.747298169,5.08641186,0.726110438,0.5557029110000001,0.338657678,-0.391130627,-0.31458111,-3.8937298000000005,-0.339377848,-0.346132312,-0.286091254,-1.7133886900000004,,212.84848484848484,1,L11_NIRS-2019-08-23_002_trial05.txt,72.0
43,703.9359999999999,0.7153701650000001,4.99418446,0.705190799,0.576148012,0.29603754400000004,-0.46505134200000003,-0.31647824300000005,-3.901357289999999,-0.32663583900000004,-0.378522647,-0.298867271,-1.69947726,,212.84848484848484,1,L11_NIRS-2019-08-23_002_trial05.txt,72.0
44,705.2160000000001,0.677840865,4.94749996,0.709997819,0.623500279,0.29210918399999997,-0.4625440730000001,-0.304782575,-3.89178506,-0.30546962099999997,-0.400398443,-0.30278046200000003,-1.67749089,,212.84848484848484,1,L11_NIRS-2019-08-23_002_trial05.txt,72.0
45,706.4960000000001,0.641858121,4.93607609,0.6984329579999999,0.677826617,0.305038496,-0.43070738000000003,-0.2921331399999999,-3.8799681300000004,-0.286220868,-0.4204239230000001,-0.30006291799999996,-1.6641044700000003,,212.84848484848484,1,L11_NIRS-2019-08-23_002_trial05.txt,72.0
46,707.776,0.619848944,4.95954774,0.654247934,0.7291796369999999,0.315931524,-0.437956389,-0.27435363299999993,-3.8626904600000005,-0.267474225,-0.43843695799999993,-0.298300679,-1.6501316999999998,,212.84848484848484,1,L11_NIRS-2019-08-23_002_trial05.txt,72.0
47,709.056,0.623092373,4.99273095,0.588543487,0.7446964950000001,0.30529729699999997,-0.49635416800000004,-0.24455117000000004,-3.8344655000000003,-0.25341833100000005,-0.46102064600000003,-0.29415679699999997,-1.6383323299999997,,212.84848484848484,1,L11_NIRS-2019-08-23_002_trial05.txt,72.0
48,710.336,0.6451930189999999,5.01771911,0.540403235,0.717191639,0.281361511,-0.555772738,-0.20853336000000003,-3.79178748,-0.246002748,-0.48579974099999995,-0.285657538,-1.62273198,,212.84848484848484,1,L11_NIRS-2019-08-23_002_trial05.txt,72.0
49,711.616,0.642508707,4.97790436,0.5001156179999999,0.6426263,0.24025531400000003,-0.576870768,-0.179641353,-3.74429442,-0.240587699,-0.5081093620000001,-0.275690643,-1.6094623400000003,,212.84848484848484,1,L11_NIRS-2019-08-23_002_trial05.txt,72.0
50,712.896,0.5906972269999999,4.87232676,0.4353296569999999,0.537939503,0.182305249,-0.5779095579999999,-0.15719171700000004,-3.69518463,-0.23461328999999997,-0.5245677559999999,-0.261458627,-1.59966245,,212.84848484848484,1,L11_NIRS-2019-08-23_002_trial05.txt,72.0
51,714.176,0.49417111900000005,4.72845452,0.321487104,0.4362500099999999,0.1075376894,-0.6180239139999999,-0.135912066,-3.6377513,-0.224188773,-0.528799004,-0.24896154700000003,-1.5902438,,212.84848484848484,1,L11_NIRS-2019-08-23_002_trial05.txt,72.0
52,715.456,0.3999093719999999,4.60602437,0.1654480131,0.363358218,0.022102656930000006,-0.73440591,-0.11524544300000002,-3.57630029,-0.21319297399999998,-0.5208437910000001,-0.23666924100000003,-1.5846149,,212.84848484848484,1,L11_NIRS-2019-08-23_002_trial05.txt,72.0
53,716.736,0.34990785,4.56561494,0.029595540350000005,0.32369149399999997,-0.04399188770000001,-0.8797617299999999,-0.08825466579999999,-3.5137619100000004,-0.20225941399999997,-0.5009103319999999,-0.21705705899999997,-1.57915422,,212.84848484848484,1,L11_NIRS-2019-08-23_002_trial05.txt,72.0
54,718.016,0.35677781799999997,4.61537359,-0.020480259,0.29930773099999997,-0.046633947099999996,-0.9445898739999998,-0.0551609359,-3.45775128,-0.190565368,-0.478944146,-0.19120512699999997,-1.56853299,,212.84848484848484,1,L11_NIRS-2019-08-23_002_trial05.txt,72.0
55,719.296,0.39913588499999997,4.70197991,0.018252320345,0.266772639,0.0037014979500000003,-0.8876927519999999,-0.024991821600000002,-3.4163828800000005,-0.17926748400000003,-0.4563935519999999,-0.16049044299999998,-1.5543070899999998,,212.84848484848484,1,L11_NIRS-2019-08-23_002_trial05.txt,72.0
56,720.576,0.4577687549999999,4.77655463,0.1017780728,0.22609051500000002,0.07512461079999999,-0.7484229889999999,-0.0020730899769999997,-3.3852767800000003,-0.166579902,-0.43814948000000004,-0.130303565,-1.54964613,,212.84848484848484,1,L11_NIRS-2019-08-23_002_trial05.txt,72.0
57,721.856,0.482698142,4.791561719999999,0.15786242,0.195444949,0.11509337400000001,-0.655446137,0.006342538360000001,-3.3537986799999997,-0.14675470799999998,-0.41454203199999995,-0.11460470200000002,-1.5508931199999998,,212.84848484848484,1,L11_NIRS-2019-08-23_002_trial05.txt,72.0
58,723.1360000000001,0.434385696,4.7264960600000006,0.14905305,0.232128675,0.09577571309999998,-0.6718949799999999,-0.009359143861999998,-3.3218146700000006,-0.12484680700000002,-0.362805394,-0.109591323,-1.5465569000000001,,212.84848484848484,1,L11_NIRS-2019-08-23_002_trial05.txt,72.0
59,724.16,0.34579086833333333,4.620550216666667,0.10698400933333331,0.3043145583333333,0.04734658816666667,-0.75759876,-0.03883771516666667,-3.301473833333334,-0.10898095000000001,-0.299619205,-0.11037524333333333,-1.5284353333333334,,212.84848484848484,1,L11_NIRS-2019-08-23_002_trial05.txt,72.0
