,time,S1_D2_HbO,S1_D1_HbO,S2_D2_HbO,S3_D4_HbO,S3_D3_HbO,S2_D3_HbO,S1_D2_HbR,S1_D1_HbR,S2_D2_HbR,S3_D4_HbR,S3_D3_HbR,S2_D3_HbR,Var14,score,labelnum,filename,total_time
0,679.7439999999999,0.22887027999999998,4.17424855,0.6527017979999999,-0.1029594318,-0.09329028469999999,0.37515685899999995,-0.46895577799999993,-0.32221019599999995,-0.3561722559999999,-0.484425374,-0.998999497,-0.743813978,,207.75757575757575,1,L11_NIRS-2019-08-27_001_trial08.txt,68.0
1,681.0240000000001,0.27371594099999996,4.19904705,0.742113806,-0.00920060673,0.02586366397,0.46975292900000004,-0.44057282799999997,-0.25352798600000004,-0.32300874500000004,-0.443795672,-0.9524937130000002,-0.7026393050000002,,207.75757575757575,1,L11_NIRS-2019-08-27_001_trial08.txt,68.0
2,682.304,0.370927197,4.32438883,0.8406920479999999,0.1509079818,0.24232398100000002,0.646705436,-0.409746071,-0.18548652000000004,-0.30975727,-0.40339315000000003,-0.911428407,-0.6767876970000001,,207.75757575757575,1,L11_NIRS-2019-08-27_001_trial08.txt,68.0
3,683.584,0.453213517,4.4613482200000005,0.9050107570000001,0.29694188099999996,0.425970351,0.8135835349999999,-0.3810653009999999,-0.133043657,-0.313573044,-0.369822301,-0.8738776429999999,-0.65503856,,207.75757575757575,1,L11_NIRS-2019-08-27_001_trial08.txt,68.0
4,684.8639999999999,0.47201787599999995,4.52136404,0.894726238,0.35659485599999996,0.504367296,0.8754854790000002,-0.35568487699999995,-0.10844837,-0.327554029,-0.356998405,-0.848827075,-0.63553905,,207.75757575757575,1,L11_NIRS-2019-08-27_001_trial08.txt,68.0
5,686.144,0.43839993900000007,4.50310189,0.7987754629999999,0.313279388,0.4700772129999999,0.792322544,-0.329955322,-0.10736734699999999,-0.344395128,-0.36502368900000004,-0.8478216059999999,-0.617787228,,207.75757575757575,1,L11_NIRS-2019-08-27_001_trial08.txt,68.0
6,687.424,0.350831079,4.4125432,0.607981385,0.1490613557,0.332460646,0.578109874,-0.29414244199999995,-0.120173846,-0.350293571,-0.389016536,-0.852275465,-0.5977553899999999,,207.75757575757575,1,L11_NIRS-2019-08-27_001_trial08.txt,68.0
7,688.704,0.246042455,4.26776377,0.373725826,-0.06674907707,0.1510853634,0.317381945,-0.258945524,-0.12841558600000003,-0.31645965700000006,-0.40982435400000006,-0.850461967,-0.5520748130000002,,207.75757575757575,1,L11_NIRS-2019-08-27_001_trial08.txt,68.0
8,689.984,0.18803249100000002,4.12583926,0.182329319,-0.24715083300000001,0.016501097133,0.11387500240000001,-0.22536978,-0.128106837,-0.262618826,-0.41463538599999994,-0.821731403,-0.48081438299999996,,207.75757575757575,1,L11_NIRS-2019-08-27_001_trial08.txt,68.0
9,691.2640000000001,0.211592694,4.02710329,0.09432685530000001,-0.318388463,0.00275575138,0.0372759921,-0.190669111,-0.138810563,-0.22022576200000002,-0.409079971,-0.792669896,-0.416680852,,207.75757575757575,1,L11_NIRS-2019-08-27_001_trial08.txt,68.0
10,692.544,0.320517577,4.048333039999999,0.15999800600000003,-0.22470631200000005,0.1143879332,0.1211578061,-0.163332918,-0.15487745299999997,-0.19203505199999998,-0.392744657,-0.746081253,-0.358535188,,207.75757575757575,1,L11_NIRS-2019-08-27_001_trial08.txt,68.0
11,693.824,0.457254719,4.1585819399999995,0.298218955,-0.0352255406,0.307673305,0.31181658300000004,-0.14853445699999998,-0.178033791,-0.19400059,-0.38698224800000003,-0.7063318089999999,-0.32473535499999995,,207.75757575757575,1,L11_NIRS-2019-08-27_001_trial08.txt,68.0
12,695.104,0.542157865,4.26701454,0.382816029,0.10234886759999999,0.49463438900000006,0.480176837,-0.139642415,-0.20089108700000002,-0.20095620899999997,-0.39200163199999993,-0.702111186,-0.32790509800000006,,207.75757575757575,1,L11_NIRS-2019-08-27_001_trial08.txt,68.0
13,696.384,0.536290419,4.310198099999999,0.31754778599999994,0.0990781837,0.569027948,0.5042626729999998,-0.12424578599999998,-0.217738647,-0.21842138800000002,-0.420198014,-0.7193614740000001,-0.37488361800000003,,207.75757575757575,1,L11_NIRS-2019-08-27_001_trial08.txt,68.0
14,697.664,0.465556254,4.3156782499999995,0.1663700438,0.008058447359999998,0.503605726,0.37822678,-0.113539214,-0.228130106,-0.22740464,-0.45307955400000005,-0.75058446,-0.430161981,,207.75757575757575,1,L11_NIRS-2019-08-27_001_trial08.txt,68.0
15,698.9440000000001,0.395846735,4.33943341,0.017813452600000005,-0.09208400929999999,0.350259137,0.16227329529999998,-0.11320399700000001,-0.22880593,-0.234585003,-0.48399880399999995,-0.7763239390000001,-0.477738245,,207.75757575757575,1,L11_NIRS-2019-08-27_001_trial08.txt,68.0
16,700.224,0.40338427699999996,4.41878279,-0.0506915042,-0.11679614489999998,0.251194516,-0.014241362137000002,-0.11221421200000001,-0.236281719,-0.262843019,-0.510604085,-0.80807006,-0.5298853589999999,,207.75757575757575,1,L11_NIRS-2019-08-27_001_trial08.txt,68.0
17,701.5039999999999,0.49928687400000005,4.55946749,0.01612148319,-0.03265975657999999,0.27601413500000005,-0.05229919019999999,-0.114251039,-0.25263774699999997,-0.279176741,-0.525297615,-0.8209626609999999,-0.559173127,,207.75757575757575,1,L11_NIRS-2019-08-27_001_trial08.txt,68.0
18,702.7839999999999,0.645134138,4.7327818,0.192436886,0.14009896689999998,0.4330363970000001,0.09047403312999999,-0.129775681,-0.283067147,-0.281339077,-0.5309167309999999,-0.812430648,-0.5709743389999999,,207.75757575757575,1,L11_NIRS-2019-08-27_001_trial08.txt,68.0
19,704.0640000000001,0.7478956090000001,4.87329538,0.369175981,0.29009253199999996,0.632985019,0.296271024,-0.155508913,-0.317127581,-0.25935989699999995,-0.5353216059999999,-0.823705357,-0.576847035,,207.75757575757575,1,L11_NIRS-2019-08-27_001_trial08.txt,68.0
20,705.344,0.778073966,4.9645757900000005,0.44972533299999995,0.36240752,0.7506402339999999,0.39894207099999995,-0.175946724,-0.3559275169999999,-0.25795837099999996,-0.5503052129999999,-0.838009091,-0.592124903,,207.75757575757575,1,L11_NIRS-2019-08-27_001_trial08.txt,68.0
21,706.6239999999999,0.7389385070000001,5.00639629,0.431857733,0.35855771899999994,0.722866778,0.35221768600000003,-0.188512649,-0.405695944,-0.28033017800000004,-0.581213966,-0.845361592,-0.6161377230000001,,207.75757575757575,1,L11_NIRS-2019-08-27_001_trial08.txt,68.0
22,707.9040000000001,0.6789322120000001,4.998957539999999,0.360101871,0.319647448,0.6039848290000001,0.214560016,-0.20256154099999998,-0.4760763699999999,-0.32609922399999997,-0.6253957010000001,-0.8550167099999999,-0.649150922,,207.75757575757575,1,L11_NIRS-2019-08-27_001_trial08.txt,68.0
23,709.184,0.6470492820000001,4.98120276,0.277820356,0.30760958699999996,0.5004212960000001,0.12189341299999998,-0.21657030800000002,-0.566958649,-0.397180448,-0.67081516,-0.8776675780000002,-0.688368261,,207.75757575757575,1,L11_NIRS-2019-08-27_001_trial08.txt,68.0
24,710.4639999999999,0.6779934510000001,4.96905815,0.23042258699999998,0.348233039,0.517569129,0.154819213,-0.22716253199999997,-0.6736839290000001,-0.469017921,-0.709123448,-0.9076994500000002,-0.729834367,,207.75757575757575,1,L11_NIRS-2019-08-27_001_trial08.txt,68.0
25,711.7439999999999,0.7481364389999999,4.9724651,0.254664235,0.435369544,0.6478270150000001,0.338216917,-0.247926288,-0.79266777,-0.5184300580000001,-0.7481670250000001,-0.9255298499999999,-0.7619034610000001,,207.75757575757575,1,L11_NIRS-2019-08-27_001_trial08.txt,68.0
26,713.0240000000001,0.8085838460000001,5.00450596,0.32463829099999997,0.5105397939999999,0.7981291679999998,0.5455014140000001,-0.284840687,-0.893776385,-0.541351406,-0.781700739,-0.9549471390000001,-0.780756979,,207.75757575757575,1,L11_NIRS-2019-08-27_001_trial08.txt,68.0
27,714.304,0.8230037939999999,5.0479901300000005,0.38266218900000004,0.5329021380000001,0.8510831980000001,0.6395656780000001,-0.32028349300000003,-0.9612604010000002,-0.5636457870000001,-0.810864366,-0.977269665,-0.8035276920000001,,207.75757575757575,1,L11_NIRS-2019-08-27_001_trial08.txt,68.0
28,715.584,0.791039612,5.0578669199999995,0.387571004,0.5034903610000001,0.7846383559999999,0.584776415,-0.346630721,-1.0014148,-0.585476351,-0.837257317,-0.9957155509999998,-0.828171613,,207.75757575757575,1,L11_NIRS-2019-08-27_001_trial08.txt,68.0
29,716.8639999999999,0.752182455,5.028394659999999,0.365658336,0.45214845400000014,0.666250853,0.465327578,-0.36727950299999995,-1.03488716,-0.6121501229999999,-0.852187413,-1.01076158,-0.852813558,,207.75757575757575,1,L11_NIRS-2019-08-27_001_trial08.txt,68.0
30,718.144,0.712538419,4.9596217,0.326181142,0.405394111,0.5415825689999999,0.377955763,-0.382949326,-1.06791426,-0.630098218,-0.8570687180000001,-1.01385316,-0.8668609409999999,,207.75757575757575,1,L11_NIRS-2019-08-27_001_trial08.txt,68.0
31,719.424,0.766953539,4.979580820000001,0.39811417699999996,0.505620901,0.574628296,0.4548603809999999,-0.394172842,-1.09972352,-0.6541743039999999,-0.832465459,-1.01602599,-0.8753926790000002,,207.75757575757575,1,L11_NIRS-2019-08-27_001_trial08.txt,68.0
32,720.704,0.92974274,5.13617326,0.603602123,0.731001397,0.7853955719999999,0.716657321,-0.41725467799999993,-1.1476008,-0.684301165,-0.809475454,-1.003340829,-0.893509659,,207.75757575757575,1,L11_NIRS-2019-08-27_001_trial08.txt,68.0
33,721.984,1.13773845,5.406640340000001,0.898805763,1.0326727390000001,1.0619412579999998,1.040947783,-0.453400521,-1.1929889599999999,-0.7210061890000001,-0.792548698,-0.993027007,-0.913167932,,207.75757575757575,1,L11_NIRS-2019-08-27_001_trial08.txt,68.0
34,723.2640000000001,1.28578596,5.67794753,1.13262206,1.2624548,1.23731695,1.2636668400000002,-0.4929193369999999,-1.21656053,-0.7663343149999999,-0.7817349579999999,-0.996178477,-0.9475984040000001,,207.75757575757575,1,L11_NIRS-2019-08-27_001_trial08.txt,68.0
35,724.544,1.30088904,5.824639240000001,1.20607336,1.31051744,1.22827301,1.2961163299999998,-0.519648717,-1.21392514,-0.799271131,-0.7813715950000001,-1.02281014,-0.983280645,,207.75757575757575,1,L11_NIRS-2019-08-27_001_trial08.txt,68.0
36,725.824,1.1759883800000002,5.802887800000001,1.0824183530000002,1.1434569399999999,1.014458225,1.14249833,-0.537494118,-1.1857992000000002,-0.8167889880000001,-0.771988348,-1.05117182,-1.004130287,,207.75757575757575,1,L11_NIRS-2019-08-27_001_trial08.txt,68.0
37,727.104,0.962525439,5.5802033,0.8201434860000001,0.8145674210000001,0.688537034,0.8929293169999999,-0.5491785799999999,-1.1754718199999998,-0.8191873099999999,-0.7774788559999999,-1.0502581999999998,-1.00978236,,207.75757575757575,1,L11_NIRS-2019-08-27_001_trial08.txt,68.0
38,728.384,0.8250470289999999,5.377814200000001,0.6366894249999999,0.5815711779999999,0.47721820699999995,0.7298067080000001,-0.5600604299999999,-1.17354659,-0.833164565,-0.772184269,-1.04534457,-1.003862637,,207.75757575757575,1,L11_NIRS-2019-08-27_001_trial08.txt,68.0
39,729.664,0.8520033680000001,5.3477551299999995,0.645239382,0.5668733189999999,0.488527985,0.7751482250000001,-0.571340684,-1.1666697799999999,-0.8388598540000001,-0.753205414,-1.02196164,-0.9883650960000001,,207.75757575757575,1,L11_NIRS-2019-08-27_001_trial08.txt,68.0
40,730.9440000000001,1.0084842779999998,5.4885664300000006,0.8238287830000001,0.757552874,0.682732367,1.018563004,-0.57776494,-1.14658472,-0.8515948889999999,-0.7240516929999999,-0.9868148860000001,-0.990329187,,207.75757575757575,1,L11_NIRS-2019-08-27_001_trial08.txt,68.0
41,732.224,1.16492118,5.696534549999999,1.012868437,0.9876755779999999,0.9041692530000003,1.27919371,-0.5680235440000001,-1.1035863,-0.8619570120000001,-0.6936165049999999,-0.965316904,-1.007024851,,207.75757575757575,1,L11_NIRS-2019-08-27_001_trial08.txt,68.0
42,733.5039999999999,1.2576001499999998,5.93186778,1.1121476399999999,1.13697244,1.025866155,1.4045228,-0.541974888,-1.0268465999999998,-0.858781765,-0.6634068460000001,-0.959723397,-1.0279451099999999,,207.75757575757575,1,L11_NIRS-2019-08-27_001_trial08.txt,68.0
43,734.7839999999999,1.2605123500000002,6.14063344,1.053328089,1.1386467,0.972105408,1.3211262200000002,-0.5092307770000001,-0.922917705,-0.845094213,-0.634779645,-0.951557849,-1.03792625,,207.75757575757575,1,L11_NIRS-2019-08-27_001_trial08.txt,68.0
44,736.0640000000001,1.1843958799999998,6.204420170000001,0.8635694199999999,1.001080602,0.793798837,1.081778387,-0.47864766999999997,-0.8428249339999999,-0.8279919579999999,-0.6226738169999999,-0.9344067439999998,-1.03704258,,207.75757575757575,1,L11_NIRS-2019-08-27_001_trial08.txt,68.0
45,737.344,1.10109731,6.136203830000001,0.6691779399999999,0.8362302070000001,0.634438516,0.8300221560000001,-0.44406864300000004,-0.787706891,-0.8083775,-0.6213126250000001,-0.9118973730000001,-1.02549384,,207.75757575757575,1,L11_NIRS-2019-08-27_001_trial08.txt,68.0
46,738.6239999999999,1.06757685,6.071431630000001,0.577387431,0.764924467,0.5852238580000001,0.7353198830000001,-0.40774987099999993,-0.7359932789999999,-0.7752978749999999,-0.601673441,-0.884272198,-0.9931817550000002,,207.75757575757575,1,L11_NIRS-2019-08-27_001_trial08.txt,68.0
47,739.9040000000001,1.0694766599999999,6.0767237000000005,0.5819658779999999,0.7629728090000001,0.615593325,0.8051172839999999,-0.38094273599999995,-0.687325988,-0.737985719,-0.5690796429999999,-0.8500768539999999,-0.9583622039999999,,207.75757575757575,1,L11_NIRS-2019-08-27_001_trial08.txt,68.0
48,741.184,1.11511433,6.237222409999999,0.6486067289999999,0.8351724730000001,0.6837052299999999,0.931257309,-0.359197524,-0.6306703490000001,-0.6960355830000001,-0.5285038169999999,-0.813519307,-0.9223478220000001,,207.75757575757575,1,L11_NIRS-2019-08-27_001_trial08.txt,68.0
49,742.4639999999999,1.2417801599999998,6.583160509999999,0.760321503,0.9832985329999999,0.7786636980000001,1.0289968809999999,-0.34679250500000003,-0.5782105819999999,-0.671068,-0.489573867,-0.786609031,-0.89126075,,207.75757575757575,1,L11_NIRS-2019-08-27_001_trial08.txt,68.0
50,743.7439999999999,1.39447064,6.92589091,0.8402319549999999,1.1350282,0.8761055260000002,1.05990611,-0.339803338,-0.554281451,-0.674768384,-0.47393854700000004,-0.7559415070000001,-0.8719900580000001,,207.75757575757575,1,L11_NIRS-2019-08-27_001_trial08.txt,68.0
51,745.0240000000001,1.46655208,7.009236830000001,0.8330535039999999,1.21003075,0.9370081969999999,1.0131659749999997,-0.32190973500000003,-0.571646432,-0.6944046660000002,-0.4834879470000001,-0.7336253119999999,-0.8438664709999999,,207.75757575757575,1,L11_NIRS-2019-08-27_001_trial08.txt,68.0
52,746.304,1.3895218999999999,6.78175796,0.7717424079999999,1.1983529000000002,0.9438469779999998,0.95509638,-0.320300565,-0.61535546,-0.669480565,-0.5130236610000002,-0.729628757,-0.8078236319999998,,207.75757575757575,1,L11_NIRS-2019-08-27_001_trial08.txt,68.0
53,747.584,1.25115388,6.5060091799999995,0.7064201019999999,1.16680289,0.925583015,0.9707350779999999,-0.338224105,-0.6396583789999999,-0.6093854009999999,-0.5514886729999999,-0.747029753,-0.820645374,,207.75757575757575,1,L11_NIRS-2019-08-27_001_trial08.txt,68.0
54,748.6719999999999,1.1150072857142859,6.322964314285714,0.6540324157142858,1.1278955857142858,0.8290405328571427,0.952893652857143,-0.37265252714285707,-0.6444770771428573,-0.5479858957142857,-0.5715723185714285,-0.7857106257142857,-0.82595981,,207.75757575757575,1,L11_NIRS-2019-08-27_001_trial08.txt,68.0
