,time,S1_D2_HbO,S1_D1_HbO,S2_D2_HbO,S3_D4_HbO,S3_D3_HbO,S2_D3_HbO,S1_D2_HbR,S1_D1_HbR,S2_D2_HbR,S3_D4_HbR,S3_D3_HbR,S2_D3_HbR,Var14,score,labelnum,filename,total_time
0,628.4159999999999,1.0576333429999998,1.149303514,0.8847062600000001,-0.5632248860000001,1.1288661100000001,3.16772132,-0.039330468900000005,0.21133862099999998,-0.37131698800000007,0.019937019849999998,1.13496284,1.2968395899999998,,183.63636363636363,1,L18_NIRS-2019-08-23_008_trial04.txt,80.0
1,629.696,0.690404429,0.5208235600000001,0.5618896,-0.875764899,0.8681569379999999,2.78399619,-0.0641841068,0.1277392765,-0.3715439340000001,0.014166091597,1.07522498,1.22734317,,183.63636363636363,1,L18_NIRS-2019-08-23_008_trial04.txt,80.0
2,630.9759999999999,0.18428821119999997,-0.15282783316,0.17740447430000003,-1.23793818,0.603853954,2.31258769,-0.127972138,0.0213937552369,-0.386364454,-0.0330031514,1.0027501129999998,1.12457449,,183.63636363636363,1,L18_NIRS-2019-08-23_008_trial04.txt,80.0
3,632.2560000000001,0.0770421639,-0.28517500099999993,0.07663266719999999,-1.2580023200000001,0.666660633,2.38580239,-0.101575491,0.0092202579963,-0.359321143,-0.01833727643,1.015810455,1.18653686,,183.63636363636363,1,L18_NIRS-2019-08-23_008_trial04.txt,80.0
4,633.536,0.353986534,-0.009145072740000001,0.29622949800000004,-0.920776071,1.002335681,2.9482429599999995,0.005892294579999998,0.06562834619999999,-0.294988589,0.0791268946,1.09474882,1.3700711,,183.63636363636363,1,L18_NIRS-2019-08-23_008_trial04.txt,80.0
5,634.816,0.7704602320000001,0.34489767400000004,0.612172305,-0.49383716400000005,1.3653051299999999,3.6289908100000003,0.13255271750000003,0.13666723799999997,-0.23095070299999998,0.206940364,1.1808172,1.5745305699999999,,183.63636363636363,1,L18_NIRS-2019-08-23_008_trial04.txt,80.0
6,636.0959999999999,1.045486636,0.440580425,0.770616835,-0.27102297999999997,1.5323760700000002,4.06047569,0.22256717099999998,0.17523662499999998,-0.19127931700000003,0.31287975200000007,1.2232609500000002,1.7116308299999996,,183.63636363636363,1,L18_NIRS-2019-08-23_008_trial04.txt,80.0
7,637.376,1.000779669,0.11400361216000002,0.612048997,-0.4063779390000001,1.42975853,4.03924269,0.248535378,0.161391726,-0.178390036,0.36092890899999996,1.21806249,1.74754851,,183.63636363636363,1,L18_NIRS-2019-08-23_008_trial04.txt,80.0
8,638.6560000000001,0.7236506480000001,-0.41299354400000005,0.24053947560000002,-0.7296479990000001,1.2119424699999999,3.7429687,0.236575288,0.13624450800000001,-0.16358177299999999,0.38523978400000003,1.19539721,1.7227229299999998,,183.63636363636363,1,L18_NIRS-2019-08-23_008_trial04.txt,80.0
9,639.9359999999999,0.5565363629999999,-0.6729160790000001,0.01591521763,-0.8373712400000001,1.18625007,3.6634418500000003,0.25971243200000005,0.17954614,-0.1034308743,0.47385074199999994,1.21958233,1.7387233000000002,,183.63636363636363,1,L18_NIRS-2019-08-23_008_trial04.txt,80.0
10,641.2160000000001,0.7660473860000001,-0.47311611,0.1426703674,-0.5296856580000001,1.4801507199999997,4.12022905,0.384030736,0.324642379,0.0169773504,0.671164091,1.32531357,1.8932937200000002,,183.63636363636363,1,L18_NIRS-2019-08-23_008_trial04.txt,80.0
11,642.4959999999999,1.23314995,0.03917640239999999,0.49685742799999993,0.01855108905999999,1.89552993,4.81810623,0.5724227510000001,0.53282516,0.17086398,0.912583173,1.46375033,2.1159483100000003,,183.63636363636363,1,L18_NIRS-2019-08-23_008_trial04.txt,80.0
12,643.776,1.57040705,0.447578368,0.738219626,0.366441512,2.10484653,5.18577228,0.7211003239999998,0.7085032910000001,0.29680031100000004,1.07315841,1.5437290100000003,2.25300071,,183.63636363636363,1,L18_NIRS-2019-08-23_008_trial04.txt,80.0
13,645.056,1.41738774,0.27432282225,0.5870014579999999,0.1745249884,1.8785967,4.86602793,0.7488728499999999,0.7589550849999999,0.34388107300000004,1.0769786900000002,1.5097736399999997,2.2029106900000004,,183.63636363636363,1,L18_NIRS-2019-08-23_008_trial04.txt,80.0
14,646.336,0.732176771,-0.5321042888999999,-0.002585510599999996,-0.5763387659999999,1.2659077129999998,3.8722502800000003,0.649200667,0.6722711570000001,0.30659395500000003,0.932994402,1.3851856999999999,1.9841433899999998,,183.63636363636363,1,L18_NIRS-2019-08-23_008_trial04.txt,80.0
15,647.616,-0.18269884630000002,-1.64240779,-0.793065879,-1.5419817999999998,0.572297687,2.70196628,0.509053114,0.517938081,0.237276107,0.7508273639999999,1.25081141,1.7442923299999997,,183.63636363636363,1,L18_NIRS-2019-08-23_008_trial04.txt,80.0
16,648.896,-0.9484174270000001,-2.57077686,-1.45463367,-2.28895263,0.12273700390000002,1.8533834300000003,0.41785240999999995,0.38877973200000004,0.19863674899999997,0.630075029,1.17646835,1.60922886,,183.63636363636363,1,L18_NIRS-2019-08-23_008_trial04.txt,80.0
17,650.176,-1.18677931,-2.8626433600000003,-1.62827162,-2.4117930000000003,0.15957128380000002,1.78353007,0.4519816,0.36296021300000003,0.236642866,0.64503181,1.2025367599999999,1.6792401900000002,,183.63636363636363,1,L18_NIRS-2019-08-23_008_trial04.txt,80.0
18,651.456,-0.776778709,-2.2927321199999997,-1.2011368550000001,-1.85601263,0.6487636560000001,2.5037373499999993,0.610241914,0.453600872,0.342458655,0.7662929569999999,1.3054844399999999,1.91938466,,183.63636363636363,1,L18_NIRS-2019-08-23_008_trial04.txt,80.0
19,652.736,0.05133709546,-1.0603404859999999,-0.4007286582,-0.9261468670000002,1.32247942,3.56316822,0.8019048779999999,0.604118927,0.45936786699999993,0.8988440890000001,1.42240513,2.19843924,,183.63636363636363,1,L18_NIRS-2019-08-23_008_trial04.txt,80.0
20,654.016,0.8026033850000001,-0.08426232379999998,0.3405026417,-0.07403256770000001,1.84143327,4.49839971,0.9351428329999999,0.67524764,0.5193145809999999,0.994614361,1.46916516,2.3724927399999998,,183.63636363636363,1,L18_NIRS-2019-08-23_008_trial04.txt,80.0
21,655.296,1.0241269039999998,-0.042956612788999995,0.614785846,0.25358119600000006,1.9092552699999998,4.79788295,0.932591611,0.5768342019999999,0.47233395399999994,0.9880939080000001,1.3849283199999998,2.31046844,,183.63636363636363,1,L18_NIRS-2019-08-23_008_trial04.txt,80.0
22,656.576,0.646280857,-0.632134709,0.3377127160000001,-0.0679184102,1.46207445,4.1311938900000005,0.7639203059999999,0.38153578800000004,0.335076389,0.8296227070000001,1.1763206700000002,1.96681264,,183.63636363636363,1,L18_NIRS-2019-08-23_008_trial04.txt,80.0
23,657.856,-0.0048143033000000056,-1.31176521,-0.2058190924,-0.7319847060000001,0.79956721,2.8565154200000005,0.514657854,0.18394672399999998,0.183429058,0.5819649640000001,0.9227129589999998,1.4628894799999999,,183.63636363636363,1,L18_NIRS-2019-08-23_008_trial04.txt,80.0
24,659.1360000000001,-0.49497847000000006,-1.6414179700000002,-0.610569796,-1.2439774800000003,0.33305951699999997,1.71509854,0.31255009899999997,0.0618605167,0.08606216619999998,0.366756607,0.719217096,1.00803875,,183.63636363636363,1,L18_NIRS-2019-08-23_008_trial04.txt,80.0
25,660.4159999999999,-0.5974286139999999,-1.3988263900000002,-0.6820641930000001,-1.4042827900000001,0.183138462,1.0447374249999999,0.213160667,0.04847329,0.056963002900000004,0.223791744,0.60474657,0.707197098,,183.63636363636363,1,L18_NIRS-2019-08-23_008_trial04.txt,80.0
26,661.696,-0.386401449,-0.824607069,-0.48728023800000003,-1.26630896,0.267813877,0.865011481,0.20257593600000004,0.089883603,0.0734595695,0.15525858699999998,0.5786360870000001,0.598851618,,183.63636363636363,1,L18_NIRS-2019-08-23_008_trial04.txt,80.0
27,662.9759999999999,-0.1261803846,-0.44665345199999995,-0.231365199,-1.0219310140000002,0.42089271000000006,1.026659827,0.23296579300000003,0.09496281019999998,0.0970648381,0.14333421100000002,0.5876915189999999,0.6140160390000001,,183.63636363636363,1,L18_NIRS-2019-08-23_008_trial04.txt,80.0
28,664.2560000000001,-0.042704450799999995,-0.649466282,-0.122240105,-0.8838766949999999,0.514640508,1.33703667,0.267223176,0.009590093079999997,0.09245123330000002,0.154236992,0.594098861,0.69064168,,183.63636363636363,1,L18_NIRS-2019-08-23_008_trial04.txt,80.0
29,665.536,-0.18041780400000001,-1.036710353,-0.20681185200000002,-0.9284518549999999,0.47059415299999996,1.40652068,0.24036604,-0.09560454839999999,0.05260493740000001,0.11736022099999999,0.577016347,0.7111778350000001,,183.63636363636363,1,L18_NIRS-2019-08-23_008_trial04.txt,80.0
30,666.816,-0.21051376400000002,-1.2537960299999997,-0.22633766100000002,-0.85110274,0.55887602,1.66259482,0.235989731,-0.16981396499999998,0.0234261509,0.11217317,0.596563978,0.7790567529999999,,183.63636363636363,1,L18_NIRS-2019-08-23_008_trial04.txt,80.0
31,668.0959999999999,0.03290062138,-1.0384740520000002,-0.003945799589999993,-0.483031308,0.8476230899999999,2.26916517,0.270429695,-0.17540575,0.0108982336,0.153506236,0.6457130309999999,0.8962396660000002,,183.63636363636363,1,L18_NIRS-2019-08-23_008_trial04.txt,80.0
32,669.376,0.4913048859999999,-0.4868839819999999,0.41085914900000003,0.06758188550000001,1.2261472,3.06544176,0.319343453,-0.12994218899999999,-7.313020000000005e-05,0.20223758200000003,0.69850471,1.013148615,,183.63636363636363,1,L18_NIRS-2019-08-23_008_trial04.txt,80.0
33,670.6560000000001,0.9808387020000001,0.07998831046999999,0.8367299019999999,0.602592185,1.55848501,3.83615815,0.360899474,-0.0812415262,-0.017696319479999997,0.23619401300000004,0.739167903,1.10558792,,183.63636363636363,1,L18_NIRS-2019-08-23_008_trial04.txt,80.0
34,671.9359999999999,1.3067036,0.537832286,1.1050503500000002,0.934440049,1.70522134,4.221400869999999,0.355084402,-0.0533663441,-0.042723368100000006,0.21531564899999997,0.738065565,1.10485517,,183.63636363636363,1,L18_NIRS-2019-08-23_008_trial04.txt,80.0
35,673.2160000000001,1.4528259399999999,0.846694973,1.2336696899999997,1.05342883,1.68985423,4.23390314,0.310229397,-0.0559463454,-0.0639668047,0.16033644600000002,0.707638204,1.033933224,,183.63636363636363,1,L18_NIRS-2019-08-23_008_trial04.txt,80.0
36,674.4959999999999,1.49028969,1.0299287150000003,1.29942054,1.06241214,1.6122484800000003,4.09091377,0.25685208800000003,-0.07662521030000001,-0.0742415469,0.11161585999999998,0.6779461170000001,0.9477911610000002,,183.63636363636363,1,L18_NIRS-2019-08-23_008_trial04.txt,80.0
37,675.776,1.58730008,1.17681221,1.43728035,1.1472389299999999,1.64009575,4.14654306,0.24919351600000006,-0.09892299069999999,-0.0640277422,0.121507586,0.688285879,0.9398186620000001,,183.63636363636363,1,L18_NIRS-2019-08-23_008_trial04.txt,80.0
38,677.056,1.7696877999999998,1.41959232,1.68507379,1.3205972400000001,1.7470896800000002,4.35683141,0.266469093,-0.09413062470000001,-0.0454035002,0.166808282,0.7170318219999998,0.9733749979999999,,183.63636363636363,1,L18_NIRS-2019-08-23_008_trial04.txt,80.0
39,678.336,1.9489175499999998,1.6373590800000002,1.9576687400000001,1.4583773599999998,1.83724017,4.51191982,0.275285618,-0.0823162269,-0.0288688672,0.20028295499999998,0.736354101,0.98872064,,183.63636363636363,1,L18_NIRS-2019-08-23_008_trial04.txt,80.0
40,679.616,2.07941652,1.76139595,2.1568518,1.50619087,1.8743517600000001,4.588411290000001,0.281700889,-0.06312749170000001,-0.009276148928999998,0.22446936099999998,0.752860831,1.0080171959999997,,183.63636363636363,1,L18_NIRS-2019-08-23_008_trial04.txt,80.0
41,680.896,1.9693444599999999,1.5633915200000001,2.1148827399999997,1.32825533,1.7335958999999999,4.363071649999999,0.262863779,-0.07004262380000001,0.00214437575,0.216382625,0.7348926390000001,0.9744208630000001,,183.63636363636363,1,L18_NIRS-2019-08-23_008_trial04.txt,80.0
42,682.176,1.61568757,1.1062011440000001,1.8453906199999999,0.928269635,1.4300149799999997,3.8292318500000007,0.215651158,-0.0992683698,0.0003600211860000001,0.17187381699999998,0.685498658,0.880848763,,183.63636363636363,1,L18_NIRS-2019-08-23_008_trial04.txt,80.0
43,683.456,1.27327199,0.6594879990000001,1.5518554300000003,0.5657457929999999,1.19688795,3.41558185,0.193011088,-0.11694685600000002,0.002464199067,0.144749272,0.660652987,0.8334795680000001,,183.63636363636363,1,L18_NIRS-2019-08-23_008_trial04.txt,80.0
44,684.736,1.2347227299999999,0.603208121,1.50062579,0.5894121140000002,1.2787041499999998,3.51038043,0.236342876,-0.0786892192,0.0335457215,0.19507417900000001,0.700408147,0.9048592799999999,,183.63636363636363,1,L18_NIRS-2019-08-23_008_trial04.txt,80.0
45,686.016,1.5720834600000002,1.05891077,1.75661155,0.9905045290000001,1.6285523999999998,4.0262837000000005,0.335429594,0.02979244723,0.09454618449999999,0.3068635089999999,0.787699551,1.053170571,,183.63636363636363,1,L18_NIRS-2019-08-23_008_trial04.txt,80.0
46,687.296,2.07540855,1.71482044,2.1449984300000002,1.51163465,2.01777339,4.60949205,0.4458031210000001,0.161008216,0.16091789900000003,0.426777605,0.876860574,1.20223068,,183.63636363636363,1,L18_NIRS-2019-08-23_008_trial04.txt,80.0
47,688.576,2.4728435200000005,2.2334709,2.42762523,1.89088346,2.24800547,4.97661654,0.523428926,0.264475547,0.208836092,0.516181047,0.932395646,1.3060568,,183.63636363636363,1,L18_NIRS-2019-08-23_008_trial04.txt,80.0
48,689.856,2.5601529600000004,2.3034473299999996,2.41440199,1.9413576699999997,2.2057034,4.9896594499999996,0.5521621000000001,0.2945218640000001,0.221714104,0.553879545,0.9393669609999998,1.3389242000000001,,183.63636363636363,1,L18_NIRS-2019-08-23_008_trial04.txt,80.0
49,691.1360000000001,2.1899055,1.7514835700000002,1.9954685899999998,1.5023482400000001,1.8332728699999996,4.4800419499999995,0.510830587,0.23798873199999998,0.188480836,0.5078571199999999,0.886566861,1.26860514,,183.63636363636363,1,L18_NIRS-2019-08-23_008_trial04.txt,80.0
50,692.4159999999999,1.53999674,0.8800010779999999,1.3460593200000002,0.76538309,1.3284773700000003,3.6950863800000002,0.43252590900000004,0.14513636599999996,0.13993085,0.4112401009999999,0.8172488619999999,1.1593426500000001,,183.63636363636363,1,L18_NIRS-2019-08-23_008_trial04.txt,80.0
51,693.6959999999999,0.9627735210000001,0.16275709205999997,0.818653801,0.1997959822,0.9946649330000001,3.1125830300000006,0.37522649500000005,0.0775252139,0.11207314799999998,0.34184732900000003,0.77289871,1.0909916499999999,,183.63636363636363,1,L18_NIRS-2019-08-23_008_trial04.txt,80.0
52,694.9759999999999,0.8595398190000001,0.08300744289999999,0.737228983,0.1695482346,1.035341887,3.1061249699999998,0.396507996,0.10029273990000001,0.130365275,0.357465964,0.7893551560000001,1.13143883,,183.63636363636363,1,L18_NIRS-2019-08-23_008_trial04.txt,80.0
53,696.2560000000001,1.21661937,0.5631672369999999,1.096600429,0.5989676260000001,1.3559306,3.4913351400000003,0.470107607,0.19659147999999999,0.18270643,0.439996562,0.8409920200000001,1.2104587,,183.63636363636363,1,L18_NIRS-2019-08-23_008_trial04.txt,80.0
54,697.5360000000001,1.6572983099999998,0.925667754,1.59782351,1.123603976,1.72419405,4.025264,0.5577212389999999,0.25567861399999997,0.223625783,0.553148622,0.8741778420000001,1.27517031,,183.63636363636363,1,L18_NIRS-2019-08-23_008_trial04.txt,80.0
55,698.8159999999999,1.9301704000000002,1.08963769,1.9437309800000002,1.44188239,1.90736463,4.257218570000001,0.590415796,0.27175476,0.222543931,0.6076215,0.853524904,1.2455419600000002,,183.63636363636363,1,L18_NIRS-2019-08-23_008_trial04.txt,80.0
56,700.0959999999999,1.82499399,0.8507460800000001,1.91282725,1.24786377,1.69402179,3.8517823199999994,0.529828995,0.23060063499999997,0.16790695800000002,0.543343801,0.7569140440000001,1.0606751120000002,,183.63636363636363,1,L18_NIRS-2019-08-23_008_trial04.txt,80.0
57,701.376,1.432477,0.3410516623,1.55698561,0.6300625240000001,1.200226955,3.01980697,0.414812559,0.1509916,0.08788861829999998,0.40069516400000005,0.6279698,0.809123453,,183.63636363636363,1,L18_NIRS-2019-08-23_008_trial04.txt,80.0
58,702.656,0.9529614829999999,-0.19722474499999998,1.1233898989999997,-0.019664215299999996,0.698441973,2.1773184199999998,0.285434639,0.055094768500000016,0.006985554610000002,0.262041842,0.5204961540000002,0.578136556,,183.63636363636363,1,L18_NIRS-2019-08-23_008_trial04.txt,80.0
59,703.9359999999999,0.8637450239999998,-0.22100570679999998,0.9977938749999999,-0.22593927499999994,0.564911678,1.90241933,0.23370844200000002,0.0323573192,-0.026721528,0.21172269400000002,0.509281275,0.5156151550000001,,183.63636363636363,1,L18_NIRS-2019-08-23_008_trial04.txt,80.0
60,705.2160000000001,1.20052096,0.2677168191,1.2582074,0.020494377099999996,0.792725446,2.10881868,0.25164355299999996,0.08418201609999999,-0.005225446338,0.24552958699999997,0.5672831649999999,0.561760819,,183.63636363636363,1,L18_NIRS-2019-08-23_008_trial04.txt,80.0
61,706.4960000000001,1.42669938,0.46405891199999993,1.53163811,0.26794414000000005,1.015877807,2.36245193,0.272820351,0.07930554930000003,0.01594820471,0.301532307,0.594062951,0.575119637,,183.63636363636363,1,L18_NIRS-2019-08-23_008_trial04.txt,80.0
62,707.584,1.3441795714285714,0.3720708557142857,1.5416220428571425,0.20251832142857143,0.92538185,2.0747598999999997,0.22162221857142858,0.0010786466399999998,-0.004638489214285714,0.2587461214285714,0.5357883142857143,0.4280118085714286,,183.63636363636363,1,L18_NIRS-2019-08-23_008_trial04.txt,80.0
