,time,S1_D2_HbO,S1_D1_HbO,S2_D2_HbO,S3_D4_HbO,S3_D3_HbO,S2_D3_HbO,S1_D2_HbR,S1_D1_HbR,S2_D2_HbR,S3_D4_HbR,S3_D3_HbR,S2_D3_HbR,Var14,score,labelnum,filename,total_time
0,238.78400000000002,0.844154827,1.21914451,1.0850308780000002,1.013338519,0.8539317839999999,0.9662983300000001,-0.131029107,0.192199275,0.06354432950000001,0.221220378,-0.09361298489999999,0.060584533600000004,,220.87878787878788,1,L18_NIRS-2019-08-25_007_trial03.txt,67.0
1,240.064,1.076890825,1.48686831,1.28470578,1.30060944,1.015961319,1.1127041000000002,-0.08306563489999999,0.301799408,0.0952332225,0.299725954,-0.008113148494000001,0.0815364124,,220.87878787878788,1,L18_NIRS-2019-08-25_007_trial03.txt,67.0
2,241.344,1.1714519,1.47964193,1.35431423,1.3810052999999998,1.0751539,1.12012833,-0.0663345448,0.337873606,0.09760131940000001,0.332162661,0.045213080399999994,0.0788795104,,220.87878787878788,1,L18_NIRS-2019-08-25_007_trial03.txt,67.0
3,242.62399999999997,1.1892583899999998,1.29721107,1.36320205,1.37972847,1.08000935,1.06506625,-0.0667788592,0.31835783,0.08800881199999999,0.346589476,0.0782454163,0.0707126194,,220.87878787878788,1,L18_NIRS-2019-08-25_007_trial03.txt,67.0
4,243.904,1.2108895599999998,1.069358833,1.3848732700000002,1.4261025800000002,1.1367686,1.05499302,-0.0635587703,0.283775287,0.0834955724,0.382557262,0.121561112,0.07650587369999999,,220.87878787878788,1,L18_NIRS-2019-08-25_007_trial03.txt,67.0
5,245.18400000000003,1.2290014800000002,0.8695263119999999,1.40156595,1.53736289,1.2217810100000002,1.0632648500000002,-0.054599448800000006,0.26067930400000006,0.0817161229,0.424208005,0.16489235200000002,0.0878255279,,220.87878787878788,1,L18_NIRS-2019-08-25_007_trial03.txt,67.0
6,246.464,1.21072289,0.6844133680000001,1.3755650300000002,1.58973998,1.2471424500000001,1.02618176,-0.046893060199999996,0.251452099,0.0749244059,0.463399561,0.184525983,0.0904198844,,220.87878787878788,1,L18_NIRS-2019-08-25_007_trial03.txt,67.0
7,247.744,1.1824296200000002,0.5768924419999999,1.3252649399999998,1.57138545,1.22490545,0.971237543,-0.0312771142,0.27971259400000004,0.076426617,0.49600386700000004,0.19005442199999997,0.0905856629,,220.87878787878788,1,L18_NIRS-2019-08-25_007_trial03.txt,67.0
8,249.02400000000003,1.08824064,0.41215531800000005,1.20340067,1.40419605,1.1246718599999999,0.854473376,-0.00982290505,0.302693434,0.0830653238,0.5053799669999999,0.19189494899999998,0.0877384946,,220.87878787878788,1,L18_NIRS-2019-08-25_007_trial03.txt,67.0
9,250.30400000000003,0.9127566180000001,0.14132491602,1.0025508300000001,1.1143919380000002,0.932995201,0.6487886539999999,0.007431028640000001,0.290828768,0.08888718749999999,0.4884918,0.17238424200000002,0.07518016909999999,,220.87878787878788,1,L18_NIRS-2019-08-25_007_trial03.txt,67.0
10,251.58399999999997,0.729037559,-0.1394315364,0.795062164,0.84942028,0.7179726110000001,0.424387664,0.027945674799999997,0.257423129,0.1021439583,0.47320028599999997,0.150920997,0.0748575075,,220.87878787878788,1,L18_NIRS-2019-08-25_007_trial03.txt,67.0
11,252.86400000000003,0.594700939,-0.38334656899999997,0.63579495,0.6984331210000001,0.576536935,0.270765768,0.057503906699999996,0.21150782199999996,0.12867510999999998,0.47965529900000003,0.157793444,0.0971594386,,220.87878787878788,1,L18_NIRS-2019-08-25_007_trial03.txt,67.0
12,254.14399999999995,0.496770417,-0.57730997,0.5039966760000001,0.625736775,0.45256361200000006,0.15175175899999999,0.0882903909,0.16017835799999997,0.159110525,0.49189478,0.189251605,0.129604043,,220.87878787878788,1,L18_NIRS-2019-08-25_007_trial03.txt,67.0
13,255.42399999999998,0.42859937000000004,-0.7327463540000001,0.394354937,0.524459826,0.32170837700000005,0.018242658139999993,0.114159031,0.1125131581,0.18642217900000002,0.498667948,0.21562052,0.155600715,,220.87878787878788,1,L18_NIRS-2019-08-25_007_trial03.txt,67.0
14,256.704,0.36256824000000004,-0.834613866,0.287740149,0.376895091,0.1657327867,-0.15588083079999998,0.130262318,0.0846609554,0.209333781,0.5036169229999999,0.22387398799999997,0.166540516,,220.87878787878788,1,L18_NIRS-2019-08-25_007_trial03.txt,67.0
15,257.984,0.22078737800000003,-0.9878558740000001,0.1123479467,0.10216042329000001,-0.058606324599999995,-0.40426443200000006,0.129657478,0.0515565786,0.21530307200000004,0.483374369,0.21247242900000002,0.159316387,,220.87878787878788,1,L18_NIRS-2019-08-25_007_trial03.txt,67.0
16,259.264,0.029086571810000007,-1.17574382,-0.09302832344999999,-0.1922221419,-0.29321072400000003,-0.650914311,0.11478598899999999,0.008245107725999998,0.20781487799999998,0.4491246220000001,0.181510072,0.14963736600000002,,220.87878787878788,1,L18_NIRS-2019-08-25_007_trial03.txt,67.0
17,260.544,-0.11886657710000001,-1.3078728800000001,-0.23707923800000003,-0.337709467,-0.397725884,-0.76570816,0.10033176960000001,-0.0348718889,0.200975519,0.413858692,0.15851361800000002,0.15838169,,220.87878787878788,1,L18_NIRS-2019-08-25_007_trial03.txt,67.0
18,261.824,-0.17710861100000003,-1.34611831,-0.286420596,-0.320409061,-0.346712594,-0.7242905009999999,0.0889634651,-0.0793259711,0.197787526,0.388259653,0.160361399,0.181123582,,220.87878787878788,1,L18_NIRS-2019-08-25_007_trial03.txt,67.0
19,263.104,-0.1330087385,-1.28255115,-0.23216245300000002,-0.1821909887,-0.23040657099999998,-0.600384615,0.07891036440000002,-0.11921168600000001,0.195545305,0.367072766,0.177746442,0.20714316100000002,,220.87878787878788,1,L18_NIRS-2019-08-25_007_trial03.txt,67.0
20,264.384,-0.0067833186500000035,-1.1540768099999998,-0.08708126599999999,-0.008836765790000001,-0.09772350899999999,-0.472078042,0.06981954609999999,-0.150759986,0.18994903800000001,0.345119201,0.17625598199999998,0.221723187,,220.87878787878788,1,L18_NIRS-2019-08-25_007_trial03.txt,67.0
21,265.66400000000004,0.07533917180000001,-1.0517912900000002,0.00636778136,0.0707225883,-0.06444854720000001,-0.464193404,0.046817998400000005,-0.18127101299999998,0.165420034,0.30930261,0.157984319,0.207326055,,220.87878787878788,1,L18_NIRS-2019-08-25_007_trial03.txt,67.0
22,266.94399999999996,0.039343546274999995,-1.05093158,-0.04319068023,-0.0008040877400000001,-0.15563913840000002,-0.5973077200000001,0.002832818668999999,-0.22038134300000004,0.1156003512,0.258043992,0.12211120049999999,0.16685438000000002,,220.87878787878788,1,L18_NIRS-2019-08-25_007_trial03.txt,67.0
23,268.22400000000005,-0.1120277902,-1.14592987,-0.228880708,-0.1783143627,-0.328359032,-0.817981219,-0.057995721,-0.265420676,0.050403986199999994,0.1761042,0.055307460899999994,0.1180421349,,220.87878787878788,1,L18_NIRS-2019-08-25_007_trial03.txt,67.0
24,269.504,-0.28035883699999997,-1.25951995,-0.425493482,-0.348351054,-0.48539474899999996,-0.9806110479999999,-0.1152227785,-0.3075712319999999,-0.001032309978,0.1013836424,0.0024761418800000002,0.0798012194,,220.87878787878788,1,L18_NIRS-2019-08-25_007_trial03.txt,67.0
25,270.784,-0.357583475,-1.30565645,-0.48604942399999995,-0.416157566,-0.526155293,-0.9855011040000001,-0.15401994000000002,-0.33874680799999995,-0.0204346197,0.0567483164,-0.0228282934,0.0677233927,,220.87878787878788,1,L18_NIRS-2019-08-25_007_trial03.txt,67.0
26,272.06399999999996,-0.331071994,-1.27012038,-0.40218823300000006,-0.358425031,-0.46913835099999995,-0.8813531159999999,-0.17387575800000002,-0.35359162099999997,-0.014089759559999998,0.0468574056,-0.020458321999999998,0.0736721081,,220.87878787878788,1,L18_NIRS-2019-08-25_007_trial03.txt,67.0
27,273.344,-0.261424739,-1.2074292100000001,-0.263338635,-0.230354226,-0.38658032,-0.769709465,-0.183540548,-0.36344246300000005,-0.00605081467,0.0479966515,-0.021544873399999998,0.0785915731,,220.87878787878788,1,L18_NIRS-2019-08-25_007_trial03.txt,67.0
28,274.624,-0.19772628599999997,-1.1262567899999998,-0.156591011,-0.10976401949999999,-0.334308141,-0.707468673,-0.191864346,-0.3669435959999999,-0.00844927181,0.04681272610000001,-0.0283573493,0.074526903,,220.87878787878788,1,L18_NIRS-2019-08-25_007_trial03.txt,67.0
29,275.904,-0.162044982,-1.0659359299999998,-0.12023088199999998,-0.021791694118999998,-0.320239814,-0.704844354,-0.19988485000000003,-0.36641538999999995,-0.022433126700000007,0.0434534108,-0.036940450400000005,0.06254467720000001,,220.87878787878788,1,L18_NIRS-2019-08-25_007_trial03.txt,67.0
30,277.184,-0.159835109,-1.04493678,-0.141623097,0.023924436,-0.339671479,-0.752076682,-0.210154781,-0.363083593,-0.0451243071,0.024814408599999997,-0.06552936340000001,0.049613471099999994,,220.87878787878788,1,L18_NIRS-2019-08-25_007_trial03.txt,67.0
31,278.46399999999994,-0.14301568700000003,-1.014397888,-0.153088612,0.0756696005,-0.350284003,-0.77269958,-0.214519673,-0.34997828799999997,-0.0589395664,0.015720517,-0.08630381629999999,0.042957473,,220.87878787878788,1,L18_NIRS-2019-08-25_007_trial03.txt,67.0
32,279.744,-0.06139195838999999,-0.923217743,-0.0764695026,0.168957955,-0.29326124600000003,-0.7017186039999999,-0.20579636000000004,-0.326648873,-0.05543803530000001,0.0430366695,-0.09731717590000001,0.0491183766,,220.87878787878788,1,L18_NIRS-2019-08-25_007_trial03.txt,67.0
33,281.024,0.0655420021,-0.8026022060000001,0.050787110037999995,0.30500305699999997,-0.17729876700000002,-0.571324264,-0.186019465,-0.301527526,-0.045163607099999996,0.08916629670000001,-0.0913967349,0.05480524189999999,,220.87878787878788,1,L18_NIRS-2019-08-25_007_trial03.txt,67.0
34,282.30400000000003,0.16179875900000001,-0.735234822,0.14440951300000002,0.392344919,-0.0911045009,-0.4789007900000001,-0.17023807900000004,-0.294441442,-0.0480005748,0.115874097,-0.09403914930000001,0.0439016646,,220.87878787878788,1,L18_NIRS-2019-08-25_007_trial03.txt,67.0
35,283.584,0.22322290900000002,-0.717865913,0.20167365099999998,0.42912237099999995,-0.0575301956,-0.43714572599999996,-0.162435019,-0.30258580900000004,-0.060178868100000005,0.11563413000000003,-0.0988865764,0.025620728100000007,,220.87878787878788,1,L18_NIRS-2019-08-25_007_trial03.txt,67.0
36,284.86400000000003,0.239637088,-0.742349971,0.21189294999999997,0.406762759,-0.0758808994,-0.4434892899999999,-0.162570351,-0.317606579,-0.07555703960000001,0.09473190779999999,-0.125100193,0.008430350139999997,,220.87878787878788,1,L18_NIRS-2019-08-25_007_trial03.txt,67.0
37,286.14400000000006,0.209455387,-0.807584823,0.17808983599999997,0.349577876,-0.148558397,-0.47427545900000007,-0.16992858700000005,-0.332577725,-0.0907327624,0.0630278193,-0.157516662,-0.0015590871779999997,,220.87878787878788,1,L18_NIRS-2019-08-25_007_trial03.txt,67.0
38,287.424,0.18432083999999999,-0.849574434,0.152081017,0.317241745,-0.217709721,-0.476500154,-0.17305699400000002,-0.33161939000000007,-0.09506320250000001,0.043580861299999996,-0.166408834,-0.003639180234,,220.87878787878788,1,L18_NIRS-2019-08-25_007_trial03.txt,67.0
39,288.704,0.202744461,-0.826931422,0.166069216,0.355803266,-0.213531663,-0.42089511299999993,-0.16118342400000002,-0.309190461,-0.08227302839999999,0.0715196738,-0.169393319,0.006658262230000001,,220.87878787878788,1,L18_NIRS-2019-08-25_007_trial03.txt,67.0
40,289.984,0.20430164999999997,-0.8103514430000001,0.150754296,0.390827812,-0.20333673600000002,-0.38406038600000003,-0.145930166,-0.283959672,-0.0695139746,0.11004905759999999,-0.17983578699999997,0.012930149460000002,,220.87878787878788,1,L18_NIRS-2019-08-25_007_trial03.txt,67.0
41,291.264,0.17768268400000004,-0.779055333,0.0975792737,0.419232549,-0.20214826800000002,-0.38856383299999997,-0.133384159,-0.25557507300000004,-0.0572914927,0.143782298,-0.192289391,0.019163168400000003,,220.87878787878788,1,L18_NIRS-2019-08-25_007_trial03.txt,67.0
42,292.544,0.138314708,-0.763030273,0.03896191467,0.39518017000000005,-0.21929275,-0.41822052899999995,-0.12248404800000001,-0.23315297799999998,-0.0462927578,0.15593066900000002,-0.190390527,0.026792779299999996,,220.87878787878788,1,L18_NIRS-2019-08-25_007_trial03.txt,67.0
43,293.824,0.07672142459999999,-0.7465411279999999,-0.028263927770000002,0.33185870599999995,-0.26684966000000004,-0.466680339,-0.11971558599999998,-0.21541672800000003,-0.0356605131,0.15155137800000001,-0.199329855,0.0326879304,,220.87878787878788,1,L18_NIRS-2019-08-25_007_trial03.txt,67.0
44,295.1039999999999,0.03171506190000001,-0.711673757,-0.08165144619999999,0.241124231,-0.33528595699999997,-0.502089639,-0.123822389,-0.200989585,-0.027336385999999997,0.140901631,-0.203606744,0.0342456886,,220.87878787878788,1,L18_NIRS-2019-08-25_007_trial03.txt,67.0
45,296.384,0.0211020917,-0.6354931349999999,-0.10160906119999999,0.19048281,-0.39522592399999995,-0.5181302430000001,-0.12950844300000003,-0.18293804000000002,-0.0218270566,0.127938359,-0.185368852,0.030508974599999995,,220.87878787878788,1,L18_NIRS-2019-08-25_007_trial03.txt,67.0
46,297.66400000000004,0.055173525599999995,-0.481047634,-0.0838869962,0.22023834499999997,-0.39426735799999996,-0.49437200500000006,-0.13274497,-0.15637674299999998,-0.019418157,0.11618387999999999,-0.17892265499999996,0.030190536,,220.87878787878788,1,L18_NIRS-2019-08-25_007_trial03.txt,67.0
47,298.944,0.0873409237,-0.316264381,-0.0599169522,0.28019758699999997,-0.380984715,-0.440123178,-0.138904533,-0.145449504,-0.028321058399999995,0.10628253800000001,-0.193276976,0.029897497099999996,,220.87878787878788,1,L18_NIRS-2019-08-25_007_trial03.txt,67.0
48,300.22400000000005,0.233363257,0.008177359199999993,0.07787602958,0.5707483329999999,-0.1844935289,-0.22868534879999997,-0.126504907,-0.11877892900000002,-0.018791950999999998,0.127113768,-0.176983846,0.060691033000000005,,220.87878787878788,1,L18_NIRS-2019-08-25_007_trial03.txt,67.0
49,301.504,0.4718518479999999,0.35316052600000003,0.335638648,0.9258663850000002,0.12878420899999998,0.12402226614,-0.10862720699999999,-0.109106978,-0.01062756792,0.152814606,-0.139752083,0.0949185686,,220.87878787878788,1,L18_NIRS-2019-08-25_007_trial03.txt,67.0
50,302.784,0.625105165,0.521422777,0.5400584190000001,1.1731346599999999,0.409572292,0.364368695,-0.110440006,-0.14402368299999999,-0.0211496517,0.152395527,-0.11193894200000001,0.0957799355,,220.87878787878788,1,L18_NIRS-2019-08-25_007_trial03.txt,67.0
51,304.06399999999996,0.635508104,0.5433935990000001,0.5953466410000001,1.3077907599999998,0.542364704,0.398819981,-0.135237829,-0.196952378,-0.050130304199999996,0.126229544,-0.0962461942,0.062113203599999986,,220.87878787878788,1,L18_NIRS-2019-08-25_007_trial03.txt,67.0
