,time,S1_D2_HbO,S1_D1_HbO,S2_D2_HbO,S3_D4_HbO,S3_D3_HbO,S2_D3_HbO,S1_D2_HbR,S1_D1_HbR,S2_D2_HbR,S3_D4_HbR,S3_D3_HbR,S2_D3_HbR,Var14,score,labelnum,filename,total_time
0,293.696,-0.5099285680000001,0.295599668,0.203435301,0.0849104175,-0.1630055058,-0.362350097,0.0384002171,0.302266293,0.23675012099999998,0.33651145099999996,0.126110024,0.08055910780000002,,218.8181818181818,1,L18_NIRS-2019-08-27_008_trial04.txt,63.0
1,294.976,-0.295610401,0.523905483,0.43549951700000006,0.246131498,0.08887057327,-0.0653018155,0.0710154673,0.32173806099999996,0.267612147,0.35859946000000004,0.181415575,0.124584929,,218.8181818181818,1,L18_NIRS-2019-08-27_008_trial04.txt,63.0
2,296.256,-0.0015695817800000038,0.8504039879999998,0.7613523759999999,0.519309374,0.383072921,0.272379218,0.11566522449999998,0.357494801,0.29598288700000003,0.40252712100000004,0.227870727,0.158357291,,218.8181818181818,1,L18_NIRS-2019-08-27_008_trial04.txt,63.0
3,297.536,0.29932259400000005,1.10674436,1.052774874,0.7859898409999999,0.627371146,0.502853249,0.15989730800000002,0.373021988,0.30419763499999997,0.444083157,0.256532063,0.16420945699999998,,218.8181818181818,1,L18_NIRS-2019-08-27_008_trial04.txt,63.0
4,298.816,0.51296854,1.16048182,1.21294372,0.929565165,0.773628748,0.565766931,0.18558906900000002,0.34055737399999997,0.283261795,0.455107658,0.268489568,0.14107604299999998,,218.8181818181818,1,L18_NIRS-2019-08-27_008_trial04.txt,63.0
5,300.096,0.600498661,1.025197741,1.2232618800000001,0.9320625450000002,0.8138791230000001,0.49924462499999994,0.186595321,0.272662753,0.23977240700000002,0.43579213499999997,0.265601093,0.1047838732,,218.8181818181818,1,L18_NIRS-2019-08-27_008_trial04.txt,63.0
6,301.37600000000003,0.537981767,0.7037248989999999,1.0718760230000002,0.792554303,0.7455628200000001,0.33293544,0.166860346,0.17482972,0.183024636,0.388343493,0.23769186500000003,0.064117672,,218.8181818181818,1,L18_NIRS-2019-08-27_008_trial04.txt,63.0
7,302.656,0.37201796500000006,0.308265635,0.821293296,0.570397581,0.601015743,0.13630392549999998,0.13409774,0.0769955108,0.125623836,0.332837857,0.205359901,0.030391765199999997,,218.8181818181818,1,L18_NIRS-2019-08-27_008_trial04.txt,63.0
8,303.93600000000004,0.19354568800000002,-0.026748153220000005,0.572426111,0.36662362800000003,0.46906179200000003,-0.028870050390000002,0.1064917603,0.015232638495999998,0.08802343239999999,0.29796218300000005,0.185690643,0.012772986349999998,,218.8181818181818,1,L18_NIRS-2019-08-27_008_trial04.txt,63.0
9,305.216,0.06462592169999999,-0.250150291,0.390387516,0.24291959,0.372308129,-0.14518888049999998,0.10181839889999997,-0.008394185799999999,0.08042138870000001,0.29832556,0.18974915800000003,0.01019847468,,218.8181818181818,1,L18_NIRS-2019-08-27_008_trial04.txt,63.0
10,306.496,-0.00723907925,-0.4230288950000001,0.269423044,0.20016795800000003,0.368317228,-0.209461391,0.122956832,-0.0167821398,0.09452800940000002,0.323979084,0.205820675,0.019302565799999997,,218.8181818181818,1,L18_NIRS-2019-08-27_008_trial04.txt,63.0
11,307.77599999999995,-0.029953492900000007,-0.56003022,0.21057377700000002,0.21245723400000002,0.41768662400000006,-0.20728504,0.157022008,-0.0262361646,0.11859039499999999,0.355043859,0.23409203,0.033717607100000005,,218.8181818181818,1,L18_NIRS-2019-08-27_008_trial04.txt,63.0
12,309.056,-0.013713600609999998,-0.6546507819999999,0.18804879599999996,0.22962926600000003,0.428683341,-0.19104448100000002,0.18935458299999997,-0.0345399812,0.14169312399999998,0.38142169499999995,0.24261004599999997,0.0446135279,,218.8181818181818,1,L18_NIRS-2019-08-27_008_trial04.txt,63.0
13,310.33599999999996,-0.0439907064,-0.808326136,0.11240731380000002,0.173291756,0.304145329,-0.28058638300000005,0.20145333499999998,-0.0565538184,0.149409605,0.387868693,0.22041242199999997,0.0377389987,,218.8181818181818,1,L18_NIRS-2019-08-27_008_trial04.txt,63.0
14,311.616,-0.1508294042,-1.023905223,-0.03274472097,0.03543853458,0.06465578463000002,-0.48509762500000003,0.187373248,-0.08835259009999999,0.1386267,0.37919413999999996,0.16739028399999997,0.01745522695,,218.8181818181818,1,L18_NIRS-2019-08-27_008_trial04.txt,63.0
15,312.896,-0.29045181899999994,-1.25005264,-0.191627418,-0.11098492549999998,-0.18314279790000002,-0.702286863,0.165522769,-0.11608480800000001,0.126303411,0.373581541,0.126646264,0.004590478080000001,,218.8181818181818,1,L18_NIRS-2019-08-27_008_trial04.txt,63.0
16,314.176,-0.43928479499999995,-1.4575009799999998,-0.33366457400000005,-0.240796599,-0.38038776900000004,-0.8471870960000001,0.148345825,-0.140114987,0.122261094,0.374214827,0.11014841100000002,0.010883028239999998,,218.8181818181818,1,L18_NIRS-2019-08-27_008_trial04.txt,63.0
17,315.456,-0.55603241,-1.5837923699999998,-0.414528138,-0.312159611,-0.441463977,-0.8597562420000001,0.139955491,-0.155558985,0.131453227,0.37967148799999995,0.110643085,0.035122405599999997,,218.8181818181818,1,L18_NIRS-2019-08-27_008_trial04.txt,63.0
18,316.736,-0.592414185,-1.5691997,-0.40683739899999993,-0.300254786,-0.4061692330000001,-0.766268808,0.144156474,-0.156272103,0.154484494,0.38793423099999996,0.14139732800000002,0.0708957471,,218.8181818181818,1,L18_NIRS-2019-08-27_008_trial04.txt,63.0
19,318.016,-0.5367168,-1.45237813,-0.33716624000000006,-0.21827346200000003,-0.321077119,-0.654316251,0.16077015700000002,-0.150901573,0.182180722,0.39765587500000005,0.17071356799999998,0.1017477165,,218.8181818181818,1,L18_NIRS-2019-08-27_008_trial04.txt,63.0
20,319.29599999999994,-0.46766194599999994,-1.3208147899999998,-0.260204794,-0.1075511155,-0.23913845,-0.594378921,0.171443765,-0.150181153,0.200712862,0.403714495,0.190274591,0.119602001,,218.8181818181818,1,L18_NIRS-2019-08-27_008_trial04.txt,63.0
21,320.576,-0.42034528700000007,-1.20409584,-0.198718336,0.0035167052900000008,-0.17005148999999997,-0.5741495030000001,0.170041113,-0.15859994900000002,0.20485235,0.401447802,0.190310903,0.126892471,,218.8181818181818,1,L18_NIRS-2019-08-27_008_trial04.txt,63.0
22,321.85600000000005,-0.423912416,-1.1607669400000002,-0.19426184800000001,0.061457253499999996,-0.17070282899999997,-0.6077100379999999,0.153854254,-0.183803502,0.194219042,0.38242915,0.1778005,0.125972057,,218.8181818181818,1,L18_NIRS-2019-08-27_008_trial04.txt,63.0
23,323.136,-0.47275129699999996,-1.18644389,-0.254883223,0.0412381961,-0.24214834500000001,-0.7014237640000001,0.1199704012,-0.223965019,0.17231967799999998,0.34668439900000003,0.148583877,0.116850151,,218.8181818181818,1,L18_NIRS-2019-08-27_008_trial04.txt,63.0
24,324.41600000000005,-0.5372717760000001,-1.22517437,-0.33486741300000006,-0.00941986109,-0.31722421000000006,-0.807595898,0.07322092250000001,-0.26583359500000003,0.14871809000000002,0.306461179,0.11417037999999999,0.10378696809999999,,218.8181818181818,1,L18_NIRS-2019-08-27_008_trial04.txt,63.0
25,325.696,-0.6215651459999999,-1.3012432900000002,-0.434056029,-0.0664672338,-0.3966266070000001,-0.9161455100000001,0.028061219199999998,-0.30883376300000004,0.127174093,0.26538149999999994,0.08628513369999999,0.09201039259999999,,218.8181818181818,1,L18_NIRS-2019-08-27_008_trial04.txt,63.0
26,326.976,-0.722135018,-1.41783647,-0.54337614,-0.1120022601,-0.46330158899999996,-0.9991318149999999,-0.007946290011,-0.353210329,0.1042551695,0.22600077900000004,0.0563400997,0.0803498685,,218.8181818181818,1,L18_NIRS-2019-08-27_008_trial04.txt,63.0
27,328.256,-0.767364216,-1.47697084,-0.582558498,-0.0983976858,-0.444687323,-0.9709639130000001,-0.026672916600000002,-0.379982475,0.08921353570000001,0.202067627,0.04094716619999999,0.0760693627,,218.8181818181818,1,L18_NIRS-2019-08-27_008_trial04.txt,63.0
28,329.536,-0.680818565,-1.3967644200000002,-0.500698102,-0.005878992000000002,-0.2645404,-0.8014659179999999,-0.017672204199999996,-0.380655767,0.08838066289999999,0.197076789,0.0482226457,0.0789938741,,218.8181818181818,1,L18_NIRS-2019-08-27_008_trial04.txt,63.0
29,330.816,-0.5048485159999998,-1.24488917,-0.34668198,0.1327445516,-0.036528344739999996,-0.591504923,0.00953214141,-0.370549661,0.0921548719,0.20415485299999997,0.06954811629999999,0.0751918558,,218.8181818181818,1,L18_NIRS-2019-08-27_008_trial04.txt,63.0
30,332.096,-0.331873145,-1.12330658,-0.21003033500000004,0.25919899700000004,0.13308691290000002,-0.4638807719999999,0.03338573809999999,-0.36805217999999995,0.0857769085,0.20942900300000003,0.0801619396,0.053720840400000004,,218.8181818181818,1,L18_NIRS-2019-08-27_008_trial04.txt,63.0
31,333.37600000000003,-0.24027621999999998,-1.0661374,-0.142148718,0.33169664700000007,0.17595554400000002,-0.450877624,0.0318764954,-0.37703830599999993,0.06283010709999999,0.203684135,0.060770720199999996,0.018032067802,,218.8181818181818,1,L18_NIRS-2019-08-27_008_trial04.txt,63.0
32,334.656,-0.26806565299999996,-1.12430205,-0.18854459,0.30322713,0.09620073850000002,-0.548929455,0.00409079023,-0.40313488700000005,0.02624899557,0.17550710300000003,0.004898821015000001,-0.02171907962,,218.8181818181818,1,L18_NIRS-2019-08-27_008_trial04.txt,63.0
33,335.93600000000004,-0.365548688,-1.2581768199999999,-0.313324901,0.205561174,-0.03927461656,-0.686996532,-0.032317797999999995,-0.4407275479999999,-0.012914191298,0.13052334200000001,-0.0513870738,-0.056506246999999996,,218.8181818181818,1,L18_NIRS-2019-08-27_008_trial04.txt,63.0
34,337.216,-0.4648075909999999,-1.3588599599999998,-0.42225328200000006,0.11610321230000001,-0.157516635,-0.775805967,-0.06501028360000001,-0.464339526,-0.037643421499999996,0.08741459609999999,-0.10027849850000001,-0.0783492264,,218.8181818181818,1,L18_NIRS-2019-08-27_008_trial04.txt,63.0
35,338.496,-0.499520518,-1.3540455100000002,-0.44172749200000005,0.08920889289999999,-0.18240872400000002,-0.770551347,-0.0793016412,-0.46225314200000006,-0.03983221160000001,0.0635071025,-0.134488565,-0.0860072991,,218.8181818181818,1,L18_NIRS-2019-08-27_008_trial04.txt,63.0
36,339.77599999999995,-0.44920708299999995,-1.2394599300000002,-0.3536497289999999,0.17498322900000002,-0.12458722650000001,-0.6677658559999999,-0.0724799139,-0.43686241,-0.0265153569,0.06814368829999999,-0.141556136,-0.0830795263,,218.8181818181818,1,L18_NIRS-2019-08-27_008_trial04.txt,63.0
37,341.056,-0.32529165,-1.0553155229999998,-0.19568337600000002,0.35279678700000006,-0.008020074959,-0.503453248,-0.051584970699999996,-0.40112745000000005,-0.01164758975,0.095677905,-0.1134540767,-0.0788580524,,218.8181818181818,1,L18_NIRS-2019-08-27_008_trial04.txt,63.0
38,342.33599999999996,-0.18474110700000002,-0.8647869029999999,-0.026329543329999993,0.54906498,0.0948454478,-0.342277379,-0.034208395999999995,-0.36936559900000004,-0.00635785232,0.13007766199999998,-0.09314692219999998,-0.0829285454,,218.8181818181818,1,L18_NIRS-2019-08-27_008_trial04.txt,63.0
39,343.616,-0.0602869155,-0.7189098740000001,0.11148056450000002,0.715146938,0.20091897200000003,-0.22218406200000002,-0.0222476169,-0.35056508100000006,-0.011384649479999998,0.15393018399999997,-0.0768628024,-0.09579108280000001,,218.8181818181818,1,L18_NIRS-2019-08-27_008_trial04.txt,63.0
40,344.896,0.026793050503000005,-0.621828921,0.20509982,0.8510574479999999,0.311248238,-0.14475136900000002,-0.014850011799999998,-0.34589047300000003,-0.021946303099999998,0.16424431,-0.0651371259,-0.11160638299999999,,218.8181818181818,1,L18_NIRS-2019-08-27_008_trial04.txt,63.0
41,346.176,0.09470226690000001,-0.525502447,0.28278008500000007,0.9736425759999999,0.448139795,-0.063494993,-0.01005207977,-0.343015211,-0.0307171273,0.158696964,-0.06205533209999999,-0.12393179400000001,,218.8181818181818,1,L18_NIRS-2019-08-27_008_trial04.txt,63.0
42,347.456,0.184082037,-0.396735183,0.39273501599999994,1.10024758,0.625008208,0.07805729094,-0.001821828126000001,-0.33449679300000007,-0.0310388979,0.15139583,-0.0595684525,-0.12742967599999996,,218.8181818181818,1,L18_NIRS-2019-08-27_008_trial04.txt,63.0
43,348.736,0.299112555,-0.26027328999999993,0.528569689,1.2371708300000002,0.8198315769999999,0.259073075,0.01478236255,-0.319473596,-0.025239365999999996,0.14754380800000003,-0.055379985300000004,-0.124910496,,218.8181818181818,1,L18_NIRS-2019-08-27_008_trial04.txt,63.0
44,350.016,0.363831558,-0.217417544,0.5959965300000001,1.29265976,0.9000273239999999,0.336049438,0.024404639299999996,-0.316140895,-0.027328133800000005,0.13657077300000003,-0.07387541350000001,-0.134160399,,218.8181818181818,1,L18_NIRS-2019-08-27_008_trial04.txt,63.0
45,351.29599999999994,0.33918167800000004,-0.28336040799999995,0.563614785,1.23042368,0.803647432,0.26197775300000004,0.0160530588,-0.32658776000000006,-0.0400743006,0.11309813499999999,-0.118899756,-0.155389734,,218.8181818181818,1,L18_NIRS-2019-08-27_008_trial04.txt,63.0
46,352.256,0.260697156,-0.42307989999999995,0.464056972,1.1017296399999998,0.641444918,0.11208887540000001,0.0036612029840000005,-0.34397870799999997,-0.05503627040000001,0.0871493614,-0.154997486,-0.174384472,,218.8181818181818,1,L18_NIRS-2019-08-27_008_trial04.txt,63.0
