,time,S1_D2_HbO,S1_D1_HbO,S2_D2_HbO,S3_D4_HbO,S3_D3_HbO,S2_D3_HbO,S1_D2_HbR,S1_D1_HbR,S2_D2_HbR,S3_D4_HbR,S3_D3_HbR,S2_D3_HbR,Var14,score,labelnum,filename,total_time
0,16.704,-4.930382290000001,-1.8667927300000002,-0.8379909659999999,8.490256910000001,-0.672495745,-0.851135517,-0.531027217,-0.47473094699999996,-0.41942697500000004,12.783896099999998,-0.20208614199999997,0.21807306200000004,,231.8181818181818,1,L18_NIRS-2019-08-26_007_trial01.txt,50.0
1,17.984,-4.958195379999999,-1.94234246,-0.9215105609999998,8.063609490000001,-0.880389248,-0.951122397,-0.5720715730000001,-0.49671519799999997,-0.46895795700000004,13.374951,-0.30319625399999994,0.197702496,,231.8181818181818,1,L18_NIRS-2019-08-26_007_trial01.txt,50.0
2,19.264,-5.01977368,-2.0163785400000003,-1.016552785,4.53978914,-1.13984408,-1.0614691,-0.621358387,-0.5062160519999999,-0.514191976,14.535138700000001,-0.41583453300000006,0.18089456399999998,,231.8181818181818,1,L18_NIRS-2019-08-26_007_trial01.txt,50.0
3,20.544,-5.069517179999999,-2.05217906,-1.06037164,2.1424939200000006,-1.37024189,-1.12310928,-0.661714715,-0.5019349980000001,-0.538869307,14.896660399999998,-0.519166642,0.172652695,,231.8181818181818,1,L18_NIRS-2019-08-26_007_trial01.txt,50.0
4,21.824,-5.05456657,-2.03733556,-1.0366566600000002,0.5426373309,-1.5432586700000002,-1.1179777999999998,-0.684775534,-0.49521087700000005,-0.542877447,14.730151700000002,-0.600492941,0.16485588299999998,,231.8181818181818,1,L18_NIRS-2019-08-26_007_trial01.txt,50.0
5,23.104,-4.96875835,-1.9828006300000003,-0.938748249,-1.309411196,-1.6539829300000002,-1.07329495,-0.6884987779999999,-0.4849785109999999,-0.524526574,14.9658546,-0.667968084,0.15410860099999998,,231.8181818181818,1,L18_NIRS-2019-08-26_007_trial01.txt,50.0
6,24.384,-4.82740945,-1.89070064,-0.774475833,2.1265398760000003,-1.72612136,-1.04316617,-0.664020108,-0.459786423,-0.482546915,12.120704499999999,-0.7296246120000001,0.14379357399999998,,231.8181818181818,1,L18_NIRS-2019-08-26_007_trial01.txt,50.0
7,25.663999999999998,-4.70535932,-1.8290457099999997,-0.6670862179999999,5.199873,-1.8259727900000002,-1.0914926399999998,-0.6326396470000001,-0.434661953,-0.44763590600000003,9.35320172,-0.788769199,0.12545065,,231.8181818181818,1,L18_NIRS-2019-08-26_007_trial01.txt,50.0
8,26.944,-4.6387002299999995,-1.82537804,-0.651837105,5.43923983,-1.94604398,-1.1936882599999998,-0.606121578,-0.4132152479999999,-0.4269925580000001,9.62368989,-0.8332898830000002,0.10587656710000001,,231.8181818181818,1,L18_NIRS-2019-08-26_007_trial01.txt,50.0
9,28.224,-4.63959001,-1.8928615699999998,-0.712999843,4.02482902,-2.06919531,-1.30629484,-0.5875210240000001,-0.384744635,-0.4150628,10.7390869,-0.871151126,0.0902663091,,231.8181818181818,1,L18_NIRS-2019-08-26_007_trial01.txt,50.0
10,29.504,-4.72371774,-2.03505246,-0.8330953489999999,3.52745222,-2.2084829800000003,-1.4244975400000002,-0.5735768609999999,-0.353122246,-0.411933715,10.559142640000001,-0.907328837,0.0794186207,,231.8181818181818,1,L18_NIRS-2019-08-26_007_trial01.txt,50.0
11,30.784000000000002,-4.86402534,-2.22547755,-1.0150460620000001,4.90098874,-2.38434819,-1.5662266900000001,-0.5620107529999999,-0.31388236,-0.42481555000000004,9.5864086,-0.9436400029999998,0.0682577303,,231.8181818181818,1,L18_NIRS-2019-08-26_007_trial01.txt,50.0
12,32.064,-4.996062739999999,-2.41481255,-1.19065976,4.6246689,-2.55279083,-1.7074181400000001,-0.540786077,-0.255831033,-0.433371469,10.7685192,-0.974569156,0.0637443491,,231.8181818181818,1,L18_NIRS-2019-08-26_007_trial01.txt,50.0
13,33.344,-5.08792608,-2.5858147500000004,-1.3205292499999999,5.82752684,-2.66159281,-1.8090486900000002,-0.501983834,-0.176751332,-0.416940808,11.2293794,-0.9920813770000001,0.07192553830000001,,231.8181818181818,1,L18_NIRS-2019-08-26_007_trial01.txt,50.0
14,34.624,-5.15306132,-2.7133296799999997,-1.4033643,4.95896386,-2.70434105,-1.8491412400000002,-0.44316637099999995,-0.07706924600000001,-0.374252127,12.6997693,-0.9928546950000001,0.09755495079999998,,231.8181818181818,1,L18_NIRS-2019-08-26_007_trial01.txt,50.0
15,35.904,-5.218717669999999,-2.82418776,-1.49258921,1.5251181290000004,-2.7514023,-1.87478963,-0.378410734,0.01994092031,-0.31944481599999996,15.5422245,-0.9852135890000001,0.13017219300000002,,231.8181818181818,1,L18_NIRS-2019-08-26_007_trial01.txt,50.0
16,37.184,-5.29761552,-2.93679843,-1.6185770800000003,-0.5488436919999999,-2.8345038799999998,-1.9355625699999996,-0.318809456,0.0981542634,-0.266641052,15.860113799999999,-0.9809426000000002,0.158991742,,231.8181818181818,1,L18_NIRS-2019-08-26_007_trial01.txt,50.0
17,38.464,-5.448769,-3.12766098,-1.8435653199999997,-1.1967301899999998,-2.99661808,-2.09476672,-0.281018568,0.13360054799999999,-0.23524475799999997,15.3354175,-0.996573472,0.17282424400000002,,231.8181818181818,1,L18_NIRS-2019-08-26_007_trial01.txt,50.0
18,39.744,-5.627626520000001,-3.31368412,-2.1025184599999998,-1.78879305,-3.17852441,-2.2839258100000004,-0.260847805,0.136298222,-0.21754933699999998,14.392446900000001,-1.01224304,0.185512355,,231.8181818181818,1,L18_NIRS-2019-08-26_007_trial01.txt,50.0
19,41.024,-5.77120956,-3.44942932,-2.3185851900000003,-3.21079071,-3.3034923800000002,-2.4128971399999997,-0.24960587000000004,0.12238741,-0.19801602000000001,14.8248304,-1.006270743,0.20947082900000003,,231.8181818181818,1,L18_NIRS-2019-08-26_007_trial01.txt,50.0
20,42.304,-5.78021624,-3.4400916,-2.3440293,-2.4621378,-3.2745755500000002,-2.3741781,-0.22143680300000002,0.11703879000000002,-0.14402245900000002,14.575535100000002,-0.9645282740000001,0.257386426,,231.8181818181818,1,L18_NIRS-2019-08-26_007_trial01.txt,50.0
21,43.584,-5.69087548,-3.3277991699999996,-2.2366889999999997,-1.5693138199999996,-3.14699292,-2.23010871,-0.183222535,0.11712998100000001,-0.0769493084,13.5215651,-0.9086166410000001,0.315025782,,231.8181818181818,1,L18_NIRS-2019-08-26_007_trial01.txt,50.0
22,44.86399999999999,-5.570959139999999,-3.18964364,-2.11094857,-2.0249857099999997,-3.04763203,-2.0992366999999996,-0.153209696,0.1091812549,-0.021073464780000002,14.567408600000002,-0.8626418130000001,0.362776203,,231.8181818181818,1,L18_NIRS-2019-08-26_007_trial01.txt,50.0
23,46.14399999999999,-5.493508359999999,-3.1082370999999998,-2.05777477,-0.87041288051,-3.04893353,-2.0601682099999996,-0.14996961699999997,0.07658834219999999,0.0047753125960999995,14.3268545,-0.839977237,0.38786446300000005,,231.8181818181818,1,L18_NIRS-2019-08-26_007_trial01.txt,50.0
24,47.42399999999999,-5.48955117,-3.10338932,-2.09570035,0.22584261629999997,-3.1320619400000003,-2.0956220199999995,-0.174178522,0.026770219640000002,0.0014864811720000002,13.7111968,-0.8402125540000001,0.392965281,,231.8181818181818,1,L18_NIRS-2019-08-26_007_trial01.txt,50.0
25,48.70399999999999,-5.555582230000001,-3.14705995,-2.19612821,0.2043699362,-3.2302265400000003,-2.1506809600000003,-0.21488127299999998,-0.024243602439999998,-0.02376125627,13.5528795,-0.845635473,0.390013003,,231.8181818181818,1,L18_NIRS-2019-08-26_007_trial01.txt,50.0
26,49.983999999999995,-5.62789358,-3.19457282,-2.29937775,-0.003930646599999997,-3.2841055499999996,-2.17020959,-0.2576506,-0.0661734215,-0.057751419000000005,13.6822722,-0.848860599,0.38376052400000005,,231.8181818181818,1,L18_NIRS-2019-08-26_007_trial01.txt,50.0
27,51.263999999999996,-5.61771481,-3.1698789300000003,-2.2946072600000003,0.7457942059620001,-3.2428885199999997,-2.1120746100000005,-0.279514801,-0.08895219609999999,-0.07207384349999998,13.1811747,-0.831430074,0.3806631690000001,,231.8181818181818,1,L18_NIRS-2019-08-26_007_trial01.txt,50.0
28,52.544,-5.53312097,-3.10627338,-2.20477204,1.053132629,-3.1302173000000004,-2.01561434,-0.28583562800000006,-0.10757065019999998,-0.06915020190000001,13.0408883,-0.8058299090000001,0.37221867,,231.8181818181818,1,L18_NIRS-2019-08-26_007_trial01.txt,50.0
29,53.824,-5.43075174,-3.02986448,-2.1015205,0.47402502780000005,-2.9864638300000004,-1.9181395900000004,-0.287380007,-0.12316751299999999,-0.06609486969999999,14.824334799999999,-0.774516291,0.357187215,,231.8181818181818,1,L18_NIRS-2019-08-26_007_trial01.txt,50.0
30,55.104,-5.35706287,-2.97804497,-2.0227167400000003,0.7907830548899999,-2.81348912,-1.82997415,-0.298066817,-0.150122591,-0.0720948778,16.028838099999998,-0.740528625,0.340545283,,231.8181818181818,1,L18_NIRS-2019-08-26_007_trial01.txt,50.0
31,56.384,-5.282689840000001,-2.91026858,-1.93725455,-0.066268453,-2.5830309899999997,-1.71945482,-0.317902641,-0.182196509,-0.0859174771,16.4485811,-0.6962901080000001,0.328152314,,231.8181818181818,1,L18_NIRS-2019-08-26_007_trial01.txt,50.0
32,57.664,-5.20197822,-2.82773586,-1.8411421800000003,0.1096259893,-2.2956007499999997,-1.59459089,-0.341568661,-0.21225742700000003,-0.1084705909,16.5817221,-0.6426635690000001,0.31892830000000005,,231.8181818181818,1,L18_NIRS-2019-08-26_007_trial01.txt,50.0
33,58.944,-5.100192730000001,-2.7186529399999997,-1.73534118,1.56296675,-2.01815657,-1.47873139,-0.367243278,-0.249095609,-0.13947451100000002,15.7367709,-0.5959150230000001,0.304622442,,231.8181818181818,1,L18_NIRS-2019-08-26_007_trial01.txt,50.0
34,60.22399999999999,-4.94457141,-2.54338101,-1.59073298,1.2993366689999999,-1.7726985600000003,-1.3514263800000001,-0.38535434699999993,-0.28005864399999997,-0.16559344199999998,14.905812899999997,-0.550959485,0.291342282,,231.8181818181818,1,L18_NIRS-2019-08-26_007_trial01.txt,50.0
35,61.504000000000005,-4.74290285,-2.3091546000000003,-1.3852147799999999,-0.69462662,-1.5421308099999997,-1.19120999,-0.39348221099999997,-0.297312522,-0.17487601800000002,15.946143600000003,-0.5104010619999999,0.278559201,,231.8181818181818,1,L18_NIRS-2019-08-26_007_trial01.txt,50.0
36,62.78399999999999,-4.5241383100000006,-2.02054945,-1.1467455599999998,-1.148964746,-1.32774046,-1.0209819039999999,-0.394170614,-0.290164569,-0.173729972,16.596446300000004,-0.48107714800000007,0.262711354,,231.8181818181818,1,L18_NIRS-2019-08-26_007_trial01.txt,50.0
37,64.064,-4.38070894,-1.7791174400000003,-1.0115405389999998,-0.6591372200000001,-1.1852753000000003,-0.9256428839999998,-0.40142978000000007,-0.279348876,-0.193482675,16.6612705,-0.47663606000000003,0.23132586900000002,,231.8181818181818,1,L18_NIRS-2019-08-26_007_trial01.txt,50.0
38,65.34400000000001,-4.36463105,-1.6418409400000002,-1.045715966,1.635072306,-1.1588464900000002,-0.947395187,-0.426900539,-0.273593907,-0.248919273,15.7806273,-0.502268792,0.18630959900000002,,231.8181818181818,1,L18_NIRS-2019-08-26_007_trial01.txt,50.0
39,66.432,-4.544841442857143,-1.754002914285714,-1.3551741285714287,5.018060514285715,-1.2650170142857142,-1.1045575571428572,-0.49144215,-0.33223840428571433,-0.36063856285714285,14.132695142857143,-0.5435293671428572,0.12624576714285715,,231.8181818181818,1,L18_NIRS-2019-08-26_007_trial01.txt,50.0
