,time,S1_D2_HbO,S1_D1_HbO,S2_D2_HbO,S3_D4_HbO,S3_D3_HbO,S2_D3_HbO,S1_D2_HbR,S1_D1_HbR,S2_D2_HbR,S3_D4_HbR,S3_D3_HbR,S2_D3_HbR,Var14,score,labelnum,filename,total_time
0,442.04800000000006,0.4597303440000001,0.675713021,1.015845406,0.9032424290000002,0.9255574259999999,0.7990536709999999,0.046228500500000005,0.22179429599999997,0.09766949850000002,0.276261513,0.13068374209999997,-0.08735313210000002,,223.87878787878788,1,L18_NIRS-2019-08-25_007_trial05.txt,64.0
1,443.328,0.692033896,0.869396307,1.270227,1.25490706,1.21564387,1.0432516079999998,0.10163459929999999,0.278878248,0.16040371800000003,0.39281037199999996,0.218819683,-0.0379605941,,223.87878787878788,1,L18_NIRS-2019-08-25_007_trial05.txt,64.0
2,444.608,0.9960111209999999,1.17242761,1.5572572800000002,1.63939075,1.48666234,1.29256416,0.165229293,0.34870524300000005,0.22420747299999996,0.520530629,0.302877777,0.014651493262999998,,223.87878787878788,1,L18_NIRS-2019-08-25_007_trial05.txt,64.0
3,445.88800000000003,1.3123472500000002,1.46531009,1.85407945,2.0106130799999997,1.7500138299999999,1.55040351,0.21733727899999997,0.403541198,0.272298809,0.6193846470000001,0.388524681,0.06442456799999999,,223.87878787878788,1,L18_NIRS-2019-08-25_007_trial05.txt,64.0
4,447.16799999999995,1.5682807799999998,1.6594113699999997,2.07877254,2.35053022,2.04923036,1.7751303799999998,0.247980626,0.428553346,0.29135989800000006,0.687770246,0.475797751,0.11023731480000001,,223.87878787878788,1,L18_NIRS-2019-08-25_007_trial05.txt,64.0
5,448.44800000000004,1.73976562,1.7775035199999998,2.1899718200000002,2.66274223,2.35281051,1.96008694,0.25081209099999996,0.43213759000000007,0.28494652,0.718713016,0.5567801429999999,0.151284953,,223.87878787878788,1,L18_NIRS-2019-08-25_007_trial05.txt,64.0
6,449.72799999999995,1.7463801999999997,1.72080367,2.1246570599999997,2.7314809999999996,2.4479314800000003,1.9854093899999998,0.21614198399999998,0.392549025,0.242196578,0.6936897460000001,0.60503187,0.15728429400000002,,223.87878787878788,1,L18_NIRS-2019-08-25_007_trial05.txt,64.0
7,451.008,1.65874896,1.56838479,1.97293035,2.63123297,2.36954907,1.8822125499999998,0.16231837000000002,0.32649109000000004,0.182593105,0.6364580639999999,0.5875897459999999,0.12903346999999998,,223.87878787878788,1,L18_NIRS-2019-08-25_007_trial05.txt,64.0
8,452.288,1.6237681099999999,1.48574985,1.9043358600000002,2.5718875600000004,2.27025964,1.8126116700000001,0.11648762400000001,0.271163007,0.134643228,0.5790340730000001,0.5550712069999999,0.0923016727,,223.87878787878788,1,L18_NIRS-2019-08-25_007_trial05.txt,64.0
9,453.56800000000004,1.70907954,1.53985811,1.9957396500000002,2.6675169299999997,2.31988609,1.88967071,0.09166635079999999,0.24949396699999998,0.108738957,0.565554472,0.509142032,0.06143371710000001,,223.87878787878788,1,L18_NIRS-2019-08-25_007_trial05.txt,64.0
10,454.84799999999996,1.83764607,1.67249421,2.1474064800000003,2.88140878,2.4495788499999995,2.03824333,0.0813341514,0.26455684700000004,0.09169729200000001,0.575691314,0.47153604,0.0340126442,,223.87878787878788,1,L18_NIRS-2019-08-25_007_trial05.txt,64.0
11,456.128,1.84484379,1.6912332399999996,2.1682824500000004,2.95731284,2.4780822900000006,2.06020791,0.06884964330000001,0.27853273700000003,0.06043411550000001,0.5646092500000001,0.401675342,-0.00656715312,,223.87878787878788,1,L18_NIRS-2019-08-25_007_trial05.txt,64.0
12,457.4080000000001,1.69241954,1.5596282499999998,1.9960324099999998,2.79437063,2.29559611,1.88113798,0.0520866179,0.279812702,0.0241580194,0.5138132109999999,0.32107445700000004,-0.05693057530000001,,223.87878787878788,1,L18_NIRS-2019-08-25_007_trial05.txt,64.0
13,458.688,1.4429588999999998,1.30114329,1.69792308,2.41239077,1.94543823,1.5547481299999997,0.037445417,0.268412186,0.0013888426962,0.4457468090000001,0.24274207099999998,-0.10192387119999999,,223.87878787878788,1,L18_NIRS-2019-08-25_007_trial05.txt,64.0
14,459.96799999999996,1.1669467099999997,0.9451873569999998,1.3798248899999999,2.02022691,1.59525233,1.20798508,0.0312103368,0.24636975600000005,0.00024907540889999977,0.387908999,0.198901909,-0.12761845200000002,,223.87878787878788,1,L18_NIRS-2019-08-25_007_trial05.txt,64.0
15,461.24799999999993,0.9630994009999998,0.6334063910000001,1.1560188400000002,1.7968259800000002,1.3975146200000002,0.986921255,0.0412984866,0.243496025,0.024303742100000005,0.38830213599999996,0.21037624800000004,-0.119447068,,223.87878787878788,1,L18_NIRS-2019-08-25_007_trial05.txt,64.0
16,462.52799999999996,0.901853647,0.506800923,1.1039336999999998,1.7870915100000002,1.38386023,0.9512510480000002,0.0800053524,0.287213995,0.07378083179999999,0.456601374,0.24847699800000003,-0.08451572100000002,,223.87878787878788,1,L18_NIRS-2019-08-25_007_trial05.txt,64.0
17,463.808,0.9535088810000001,0.526776263,1.1616514299999998,1.84492644,1.4198445300000002,1.00023528,0.14960843699999998,0.36658856,0.142485205,0.564892792,0.296570382,-0.041057950100000004,,223.87878787878788,1,L18_NIRS-2019-08-25_007_trial05.txt,64.0
18,465.0879999999999,0.9913439940000002,0.51452356,1.19893386,1.7803262199999998,1.35317844,0.9748443,0.21950020600000003,0.43846399700000005,0.203435015,0.6408112449999999,0.328890299,-0.011735313900000002,,223.87878787878788,1,L18_NIRS-2019-08-25_007_trial05.txt,64.0
19,466.36800000000005,0.9214342299999998,0.36213016000000003,1.12990231,1.5244759399999999,1.1676548500000001,0.8102518679999999,0.27101560399999997,0.47343461899999995,0.244835698,0.6830248689999999,0.343672044,-0.0018731450609999999,,223.87878787878788,1,L18_NIRS-2019-08-25_007_trial05.txt,64.0
20,467.64799999999997,0.7715828589999998,0.1498753795,0.9750526159999999,1.2302966,0.9762934169999999,0.5981073450000001,0.307059729,0.486227289,0.280430308,0.7114878150000001,0.35818500899999994,0.008302974979999999,,223.87878787878788,1,L18_NIRS-2019-08-25_007_trial05.txt,64.0
21,468.928,0.5280843609999999,-0.15020933246,0.709216405,0.924251993,0.788912703,0.34915529599999995,0.325253939,0.4598821019999999,0.3093613290000001,0.7310421680000001,0.38336740700000005,0.0234455959,,223.87878787878788,1,L18_NIRS-2019-08-25_007_trial05.txt,64.0
22,470.20799999999997,0.279978269,-0.413998678,0.41948878600000006,0.724214224,0.63859022,0.13279169659999995,0.334372265,0.41319441600000006,0.342052047,0.752970678,0.421467491,0.0573307951,,223.87878787878788,1,L18_NIRS-2019-08-25_007_trial05.txt,64.0
23,471.488,0.19711009799999998,-0.46233008899999994,0.31569030299999995,0.7062561749999999,0.6166530650000001,0.0818325359,0.355644597,0.37829280600000004,0.39682288200000004,0.7845190209999999,0.47986930899999997,0.119097948,,223.87878787878788,1,L18_NIRS-2019-08-25_007_trial05.txt,64.0
24,472.76800000000003,0.331414152,-0.29012267100000005,0.47981069000000004,0.9074152850000001,0.803341502,0.22394808400000002,0.39084710799999994,0.354820069,0.46601443100000006,0.82067774,0.5619706210000001,0.195579958,,223.87878787878788,1,L18_NIRS-2019-08-25_007_trial05.txt,64.0
25,474.04799999999994,0.617217371,0.08273994439999999,0.8229197100000001,1.3419352299999998,1.1097642650000001,0.4649465380000001,0.41480229900000004,0.351371637,0.5171414389999999,0.8549142319999998,0.665184337,0.2592356669999999,,223.87878787878788,1,L18_NIRS-2019-08-25_007_trial05.txt,64.0
26,475.3280000000001,0.849331008,0.40002217399999995,1.10612441,1.7421420699999999,1.36507417,0.6076794139999999,0.40015034800000004,0.325480181,0.508331614,0.8396886720000001,0.725215357,0.275595422,,223.87878787878788,1,L18_NIRS-2019-08-25_007_trial05.txt,64.0
27,476.608,0.926747413,0.575942091,1.1954239100000001,1.9447277899999995,1.45167449,0.5748898510000001,0.344977054,0.272481015,0.4468914359999999,0.7728413439999999,0.7307039449999999,0.23742951399999995,,223.87878787878788,1,L18_NIRS-2019-08-25_007_trial05.txt,64.0
28,477.88800000000003,0.886182994,0.597977963,1.14929566,1.9443051599999996,1.40069461,0.461636048,0.27277848200000004,0.193705152,0.366955996,0.677494001,0.700102048,0.17427586199999998,,223.87878787878788,1,L18_NIRS-2019-08-25_007_trial05.txt,64.0
29,479.16799999999995,0.8261959839999997,0.542001922,1.08941161,1.86546278,1.3116483899999998,0.390127558,0.20254479600000003,0.10235845569999999,0.293973851,0.589825581,0.667684846,0.1210379301,,223.87878787878788,1,L18_NIRS-2019-08-25_007_trial05.txt,64.0
30,480.44800000000004,0.802741039,0.504139798,1.07665516,1.7852614800000002,1.2618443,0.392060677,0.136596249,0.01829188666,0.23312776799999999,0.5087347249999999,0.612089966,0.07144538619999999,,223.87878787878788,1,L18_NIRS-2019-08-25_007_trial05.txt,64.0
31,481.72800000000007,0.8543944580000001,0.5607853140000001,1.15420392,1.8248056400000003,1.3511009299999999,0.484092578,0.0792023176,-0.049012876000000004,0.184623429,0.43505652499999997,0.556571573,0.0273053497,,223.87878787878788,1,L18_NIRS-2019-08-25_007_trial05.txt,64.0
32,483.008,0.9326897299999999,0.732690073,1.26396176,1.99278939,1.4612718900000001,0.5944897939999999,0.027014625699999996,-0.0859708451,0.14355096400000003,0.391107623,0.504590106,-0.01637083666,,223.87878787878788,1,L18_NIRS-2019-08-25_007_trial05.txt,64.0
33,484.288,1.0160274409999999,0.9372322979999999,1.38463532,2.18751295,1.54068967,0.683493359,-0.019152480846000002,-0.11080984810000001,0.1053355404,0.335601959,0.448494305,-0.06100453530000001,,223.87878787878788,1,L18_NIRS-2019-08-25_007_trial05.txt,64.0
34,485.56800000000004,1.13567837,1.17795523,1.53599551,2.355678,1.5977216300000001,0.772891228,-0.05474849229999999,-0.13846977200000002,0.0814993515,0.28021798600000003,0.419924916,-0.0992652507,,223.87878787878788,1,L18_NIRS-2019-08-25_007_trial05.txt,64.0
35,486.84799999999996,1.2876979100000001,1.4070752299999998,1.7213562799999997,2.4886610599999996,1.6673679700000004,0.88654773,-0.0850723629,-0.187489445,0.061505956900000006,0.227825122,0.41761136600000004,-0.126016412,,223.87878787878788,1,L18_NIRS-2019-08-25_007_trial05.txt,64.0
36,488.128,1.44029509,1.59507562,1.9061282499999996,2.5961219000000004,1.7635374799999997,0.998119766,-0.119374062,-0.266284847,0.029351759769999996,0.18289901000000003,0.4330437399999999,-0.14429138700000002,,223.87878787878788,1,L18_NIRS-2019-08-25_007_trial05.txt,64.0
37,489.4080000000001,1.56877101,1.7966999099999998,2.0546708099999997,2.65478903,1.81894937,1.07010404,-0.172465234,-0.35784889000000003,-0.02455487872,0.1204784548,0.4022381950000001,-0.173349878,,223.87878787878788,1,L18_NIRS-2019-08-25_007_trial05.txt,64.0
38,490.688,1.71652187,2.04243813,2.2156906800000002,2.7132606800000003,1.8914560599999999,1.17363759,-0.23291205899999995,-0.445765189,-0.0861051209,0.04804770040000001,0.3527177,-0.20354622500000003,,223.87878787878788,1,L18_NIRS-2019-08-25_007_trial05.txt,64.0
39,491.96799999999996,1.80428174,2.23397184,2.32450796,2.7233885800000004,1.9325716,1.25375512,-0.296708892,-0.5173975740000001,-0.14752388,-0.02211730559,0.298904974,-0.23670045600000003,,223.87878787878788,1,L18_NIRS-2019-08-25_007_trial05.txt,64.0
40,493.24799999999993,1.85703122,2.4043293800000005,2.40667516,2.7567176599999996,2.00414506,1.31264287,-0.345895184,-0.546520898,-0.189588898,-0.06443310819999999,0.27248349599999994,-0.261128393,,223.87878787878788,1,L18_NIRS-2019-08-25_007_trial05.txt,64.0
41,494.52799999999996,1.92543759,2.61357828,2.52829491,2.8805069100000003,2.1433067,1.3975138599999999,-0.367086101,-0.531674288,-0.196802194,-0.0638774422,0.303440142,-0.264149893,,223.87878787878788,1,L18_NIRS-2019-08-25_007_trial05.txt,64.0
42,495.808,1.9661911,2.78403015,2.6464302700000006,3.01008852,2.28719641,1.50024645,-0.36867237,-0.4941870890000001,-0.18665019,-0.03590642360000001,0.370263294,-0.25336571500000005,,223.87878787878788,1,L18_NIRS-2019-08-25_007_trial05.txt,64.0
43,497.0879999999999,1.95845119,2.88008738,2.72501642,3.14499278,2.43345633,1.6020400300000002,-0.3547317,-0.44750627099999996,-0.16990072499999997,0.010271945309999999,0.44683681399999997,-0.23226334699999995,,223.87878787878788,1,L18_NIRS-2019-08-25_007_trial05.txt,64.0
44,498.36800000000005,1.9229326999999998,2.92507949,2.77708409,3.26633263,2.55337203,1.6947555399999998,-0.332011922,-0.4024984709999999,-0.14923572699999998,0.0766504026,0.505307423,-0.20892724300000004,,223.87878787878788,1,L18_NIRS-2019-08-25_007_trial05.txt,64.0
45,499.64799999999997,1.9072933200000002,2.93075583,2.8567285000000004,3.39610668,2.6786720300000004,1.8162298900000002,-0.301104263,-0.363726718,-0.12201942999999997,0.137482835,0.5400859029999999,-0.18431693700000001,,223.87878787878788,1,L18_NIRS-2019-08-25_007_trial05.txt,64.0
46,500.928,1.8776960500000002,2.8245394500000005,2.9178851999999997,3.5071098799999993,2.78154831,1.9250781699999997,-0.262929528,-0.337384639,-0.09226600510000002,0.190349634,0.5594747449999999,-0.160038121,,223.87878787878788,1,L18_NIRS-2019-08-25_007_trial05.txt,64.0
47,502.20799999999997,1.8259234899999999,2.6235392500000003,2.9126651800000003,3.56188853,2.85031805,1.9806432699999998,-0.215328768,-0.31611406900000005,-0.059990782500000006,0.244941509,0.570561658,-0.134165012,,223.87878787878788,1,L18_NIRS-2019-08-25_007_trial05.txt,64.0
48,503.488,1.79136092,2.41459552,2.88605632,3.65700624,2.92930713,2.0329485299999996,-0.15566209999999997,-0.282065224,-0.018143109287999996,0.302288097,0.609876642,-0.09793683839999998,,223.87878787878788,1,L18_NIRS-2019-08-25_007_trial05.txt,64.0
49,504.76800000000003,1.7068090400000002,2.16207095,2.79042414,3.6536242000000003,2.9140516300000003,2.01021182,-0.09903077299999999,-0.24136223399999998,0.021090986569999998,0.339619307,0.6124784040000001,-0.0739808194,,223.87878787878788,1,L18_NIRS-2019-08-25_007_trial05.txt,64.0
50,506.04799999999994,1.54051541,1.85551085,2.60243726,3.5408952300000003,2.7312985600000004,1.86849819,-0.05460762649999999,-0.20478430199999997,0.05207124640000001,0.347546244,0.5859821930000001,-0.0710737296,,223.87878787878788,1,L18_NIRS-2019-08-25_007_trial05.txt,64.0
