,time,S1_D2_HbO,S1_D1_HbO,S2_D2_HbO,S3_D4_HbO,S3_D3_HbO,S2_D3_HbO,S1_D2_HbR,S1_D1_HbR,S2_D2_HbR,S3_D4_HbR,S3_D3_HbR,S2_D3_HbR,Var14,score,labelnum,filename,total_time
0,106.68799999999999,-5.4085446699999995,-0.8600513559999999,0.31206071100000005,6.406963329999999,-3.21434706,-1.9587469600000003,-0.42797844300000004,-0.300471549,0.09279088700000002,10.06936362,-1.1744925300000002,-0.21569141899999997,,233.8181818181818,1,L18_NIRS-2019-08-26_007_trial02.txt,48.0
1,107.968,-5.4052799,-0.889307681,0.33249017700000005,6.37209529,-3.2775643100000003,-2.0100333,-0.45392390399999993,-0.32512108800000006,0.06390561239999999,10.9372405,-1.2197125800000002,-0.244555707,,233.8181818181818,1,L18_NIRS-2019-08-26_007_trial02.txt,48.0
2,109.248,-5.39143689,-0.944364612,0.323009715,3.89593378,-3.3366831599999998,-2.0524112,-0.48067630299999997,-0.36465292600000004,0.0278975946,11.967408000000002,-1.2694470999999998,-0.27024822200000004,,233.8181818181818,1,L18_NIRS-2019-08-26_007_trial02.txt,48.0
3,110.52799999999999,-5.32823437,-0.9800263520000001,0.369404573,1.1208841657,-3.33162126,-2.02865869,-0.4920644019999999,-0.396559427,0.00785151574,13.027480100000002,-1.3078180300000002,-0.28155650200000004,,233.8181818181818,1,L18_NIRS-2019-08-26_007_trial02.txt,48.0
4,111.80799999999999,-5.20493069,-0.971101135,0.483653188,-1.40470936,-3.2825183099999995,-1.9597797199999998,-0.481685995,-0.412435671,0.006330862920000001,14.247155799999998,-1.33333101,-0.28800477399999996,,233.8181818181818,1,L18_NIRS-2019-08-26_007_trial02.txt,48.0
5,113.088,-5.00954288,-0.9010918760000001,0.691020096,-3.0079697200000006,-3.18249109,-1.85081434,-0.44941450400000005,-0.404522534,0.026701219600000003,15.321721800000002,-1.3470582,-0.29094386499999997,,233.8181818181818,1,L18_NIRS-2019-08-26_007_trial02.txt,48.0
6,114.36799999999998,-4.84274103,-0.8780115609999999,0.883946921,-2.48922075,-3.0870583100000006,-1.76863884,-0.413681096,-0.3901631039999999,0.0487959328,14.432449700000001,-1.36607427,-0.30360767499999997,,233.8181818181818,1,L18_NIRS-2019-08-26_007_trial02.txt,48.0
7,115.648,-4.80362785,-0.9761261969999999,0.9464993589999999,-1.427664772,-3.0356818399999996,-1.7635607,-0.389532694,-0.373173174,0.0556454027,13.254651,-1.38547692,-0.32691025100000004,,233.8181818181818,1,L18_NIRS-2019-08-26_007_trial02.txt,48.0
8,116.928,-4.8702450399999995,-1.15910403,0.882057433,-2.3254008800000006,-3.01501587,-1.81649702,-0.376006984,-0.34419208999999995,0.047658446400000005,14.308775799999998,-1.39807432,-0.353708832,,233.8181818181818,1,L18_NIRS-2019-08-26_007_trial02.txt,48.0
9,118.20800000000001,-4.9782302199999995,-1.38283939,0.750376676,-2.67964516,-2.98131182,-1.88229043,-0.35352881399999997,-0.286771813,0.0433650375,14.453118100000001,-1.3874685699999998,-0.37175560800000007,,233.8181818181818,1,L18_NIRS-2019-08-26_007_trial02.txt,48.0
10,119.48800000000001,-5.126902200000001,-1.6397534699999998,0.5560195200000001,-2.12500439,-2.93886297,-1.96784168,-0.30803353,-0.194214721,0.0459060328,13.6235501,-1.3585949600000002,-0.37644720400000004,,233.8181818181818,1,L18_NIRS-2019-08-26_007_trial02.txt,48.0
11,120.76799999999999,-5.31838928,-1.9116362500000001,0.302594175,-1.9965183100000001,-2.9095834600000003,-2.08002392,-0.24712855500000003,-0.0863784206,0.0526654649,14.764608899999999,-1.31810897,-0.36685444800000006,,233.8181818181818,1,L18_NIRS-2019-08-26_007_trial02.txt,48.0
12,122.048,-5.49737393,-2.14654688,0.06217383984,0.015563711399999996,-2.8764300800000004,-2.17623532,-0.17514784300000003,0.01944253688,0.07523898379999999,14.2523722,-1.2682957899999998,-0.33290555899999996,,233.8181818181818,1,L18_NIRS-2019-08-26_007_trial02.txt,48.0
13,123.328,-5.66113098,-2.3525529599999997,-0.161374705,0.9366542360000001,-2.8296579800000004,-2.23554499,-0.1083064362,0.0946956674,0.10691448480000001,13.9140569,-1.2054932,-0.28000684000000003,,233.8181818181818,1,L18_NIRS-2019-08-26_007_trial02.txt,48.0
14,124.60799999999999,-5.797932940000001,-2.4913765099999994,-0.346978865,-0.174895391,-2.72139648,-2.22619948,-0.053907295,0.133471166,0.14644612399999998,15.334410400000001,-1.11318599,-0.20666778300000002,,233.8181818181818,1,L18_NIRS-2019-08-26_007_trial02.txt,48.0
15,125.88799999999999,-5.88314208,-2.5458849900000002,-0.480511074,-2.62641555,-2.57851318,-2.17410122,-0.015924686940000005,0.13851519,0.192531705,17.6603877,-1.010939644,-0.12693190910000002,,233.8181818181818,1,L18_NIRS-2019-08-26_007_trial02.txt,48.0
16,127.16799999999998,-5.88829261,-2.5086380800000003,-0.530904161,-4.082316779999999,-2.46412256,-2.10629488,0.014634609179999999,0.132357437,0.24756146200000004,18.6387771,-0.925770174,-0.0522949396,,233.8181818181818,1,L18_NIRS-2019-08-26_007_trial02.txt,48.0
17,128.448,-5.83975621,-2.4349327599999997,-0.516901338,-2.1370891800000003,-2.4299760499999996,-2.04601414,0.040546504,0.125343805,0.29626732999999994,16.9565323,-0.8754877559999998,0.001757479,,233.8181818181818,1,L18_NIRS-2019-08-26_007_trial02.txt,48.0
18,129.728,-5.778470829999999,-2.37073071,-0.49038600600000004,0.32031137500000006,-2.46940999,-2.0038404,0.054028477799999995,0.107893592,0.32523335600000003,14.386938599999999,-0.8642222549999999,0.030109435400000002,,233.8181818181818,1,L18_NIRS-2019-08-26_007_trial02.txt,48.0
19,131.00799999999998,-5.74063389,-2.3174767,-0.49190799400000007,1.1775540750000002,-2.5639657199999997,-1.98848953,0.053009046399999996,0.08805922399999999,0.3343583,13.5109208,-0.8791472460000002,0.0406349008,,233.8181818181818,1,L18_NIRS-2019-08-26_007_trial02.txt,48.0
20,132.288,-5.77716727,-2.32562446,-0.5877002160000001,1.3255803389999998,-2.74056318,-2.0478318099999995,0.0349462735,0.06568266009999998,0.32461865700000003,13.1975826,-0.9036097359999999,0.03598785980000001,,233.8181818181818,1,L18_NIRS-2019-08-26_007_trial02.txt,48.0
21,133.568,-5.9431142999999995,-2.43070259,-0.8292963959999999,-0.4130563984,-2.96749825,-2.1857839500000003,-0.003011925765,0.039827131499999995,0.289710049,14.393277399999999,-0.9317744469999999,0.022855047299999997,,233.8181818181818,1,L18_NIRS-2019-08-26_007_trial02.txt,48.0
22,134.848,-6.182681199999999,-2.5987419,-1.160182523,-0.7143045380999999,-3.20192242,-2.35746167,-0.053484536699999995,0.007597746599999999,0.24284354800000002,14.866051099999998,-0.9619357550000001,0.013281542399999999,,233.8181818181818,1,L18_NIRS-2019-08-26_007_trial02.txt,48.0
23,136.128,-6.37215927,-2.7453870900000004,-1.4417382899999998,-2.21162749,-3.37737342,-2.46515281,-0.10176590379999999,-0.030403939600000002,0.21143651599999996,16.458771,-0.9712761369999999,0.0237630265,,233.8181818181818,1,L18_NIRS-2019-08-26_007_trial02.txt,48.0
24,137.408,-6.37306963,-2.7667393,-1.496609,-1.124922798,-3.3782172800000003,-2.3879561600000003,-0.12490998499999999,-0.0669727812,0.22657331899999997,15.4507418,-0.9345946169999999,0.0640710437,,233.8181818181818,1,L18_NIRS-2019-08-26_007_trial02.txt,48.0
25,138.68800000000002,-6.20580174,-2.65974955,-1.3399111000000001,-0.9844230869999999,-3.18852071,-2.1369632800000007,-0.127945307,-0.10031752190000001,0.270098332,14.004761800000002,-0.859012939,0.1189066678,,233.8181818181818,1,L18_NIRS-2019-08-26_007_trial02.txt,48.0
26,139.96800000000002,-5.97211336,-2.48710343,-1.0897165379999998,-1.73044817,-2.92474551,-1.8412532900000003,-0.12852774500000003,-0.133294285,0.31328708400000005,14.593353099999998,-0.779033091,0.162084113,,233.8181818181818,1,L18_NIRS-2019-08-26_007_trial02.txt,48.0
27,141.248,-5.7919766,-2.3615940400000004,-0.8975904939999999,-0.35492720770000014,-2.7678075,-1.66493967,-0.141344441,-0.171547964,0.333607011,14.2179462,-0.724045803,0.16983827899999998,,233.8181818181818,1,L18_NIRS-2019-08-26_007_trial02.txt,48.0
28,142.528,-5.78556213,-2.3772167499999997,-0.9066321799999999,1.3043300810000003,-2.7876474399999998,-1.69151975,-0.18037752299999998,-0.21320016600000002,0.309050127,13.309065100000002,-0.721832072,0.13674556799999998,,233.8181818181818,1,L18_NIRS-2019-08-26_007_trial02.txt,48.0
29,143.80800000000002,-5.93107112,-2.5287709899999995,-1.107215394,2.28098904,-2.93373848,-1.8732218800000002,-0.24234089599999997,-0.261400827,0.244960822,12.774905399999998,-0.759087359,0.07970690550000001,,233.8181818181818,1,L18_NIRS-2019-08-26_007_trial02.txt,48.0
30,145.088,-6.10333492,-2.7063178399999996,-1.35631107,0.8816322437999998,-3.0533134100000003,-2.05347482,-0.300407987,-0.31212193,0.17519400499999999,13.883906900000003,-0.7862989770000001,0.0298282019,,233.8181818181818,1,L18_NIRS-2019-08-26_007_trial02.txt,48.0
31,146.368,-6.16338288,-2.77922387,-1.4719495299999998,-2.091298826,-2.9913901399999996,-2.08459528,-0.33014826799999997,-0.35657796799999997,0.140176095,14.6570517,-0.766320235,0.008887394810000001,,233.8181818181818,1,L18_NIRS-2019-08-26_007_trial02.txt,48.0
32,147.648,-6.101656320000001,-2.7159422199999996,-1.4174151300000002,-3.7113828300000002,-2.7377567899999997,-1.95956133,-0.33372934200000004,-0.3869257810000001,0.130145959,14.668614799999997,-0.7101683700000001,0.010937865879999998,,233.8181818181818,1,L18_NIRS-2019-08-26_007_trial02.txt,48.0
33,148.928,-5.90837684,-2.51497304,-1.1891644499999998,-2.3559435300000002,-2.38440505,-1.73072255,-0.31800151899999995,-0.402622987,0.13773682099999998,13.605425300000002,-0.639054887,0.021402425500000002,,233.8181818181818,1,L18_NIRS-2019-08-26_007_trial02.txt,48.0
34,150.208,-5.62335065,-2.21961603,-0.8377221629999999,-0.554191546,-2.03522612,-1.4627622099999997,-0.293743184,-0.405977179,0.158389755,13.476457,-0.57474161,0.028836263,,233.8181818181818,1,L18_NIRS-2019-08-26_007_trial02.txt,48.0
35,151.488,-5.333242889999999,-1.9141692099999996,-0.48915034499999993,1.394338459,-1.75833242,-1.22917697,-0.273803225,-0.398670063,0.180284694,12.914123799999999,-0.539276233,0.025265210599999997,,233.8181818181818,1,L18_NIRS-2019-08-26_007_trial02.txt,48.0
36,152.76799999999997,-5.156125500000001,-1.7022509500000003,-0.31383253299999997,1.89801428,-1.6276919200000002,-1.1113920800000001,-0.27925115,-0.404562907,0.162327173,12.575652100000001,-0.5428684949999999,-0.0058140328,,233.8181818181818,1,L18_NIRS-2019-08-26_007_trial02.txt,48.0
37,154.048,-5.213213690000001,-1.67685559,-0.42718157,2.6771391700000002,-1.65619351,-1.1545925000000001,-0.3233027170000001,-0.42627522300000004,0.078817488,12.018396999999998,-0.585561942,-0.06141246130000001,,233.8181818181818,1,L18_NIRS-2019-08-26_007_trial02.txt,48.0
38,154.752,-5.3068456,-1.6838541,-0.54989968,2.4989861,-1.6992641,-1.2123306,-0.33555073,-0.40456625,0.028342576,12.391474,-0.60756612,-0.089758723,,233.8181818181818,1,L18_NIRS-2019-08-26_007_trial02.txt,48.0
