,time,S1_D2_HbO,S1_D1_HbO,S2_D2_HbO,S3_D4_HbO,S3_D3_HbO,S2_D3_HbO,S1_D2_HbR,S1_D1_HbR,S2_D2_HbR,S3_D4_HbR,S3_D3_HbR,S2_D3_HbR,Var14,score,labelnum,filename,total_time
0,25.024,0.33516623500000003,-0.878759868,1.09081427,-0.48177274600000014,-0.646866328,1.005745896,0.874687168,0.39243740600000004,0.7953877259999999,1.49547526,0.29681087300000003,0.17399844400000003,,203.78787878787878,1,L18_NIRS-2019-08-24_001_trial01.txt,75.0
1,26.304000000000002,0.342707508,-0.8060340350000003,1.0137106409999999,-0.43751134399999997,-0.6323918470000001,0.9570817119999999,0.873004717,0.392859496,0.8160063690000001,1.48735028,0.29309108500000003,0.172446683,,203.78787878787878,1,L18_NIRS-2019-08-24_001_trial01.txt,75.0
2,27.584000000000003,0.32774931,-0.764150483,0.843215631,-0.39998511999999997,-0.656647049,0.824258358,0.869985722,0.37682748200000005,0.8991631379999999,1.47594267,0.27949547499999994,0.15834623800000003,,203.78787878787878,1,L18_NIRS-2019-08-24_001_trial01.txt,75.0
3,28.863999999999997,0.349156897,-0.65099979,0.786476466,-0.31608626400000006,-0.6227159480000001,0.768258791,0.8767358059999999,0.36939096399999993,0.92927654,1.4785284099999998,0.27471257299999996,0.168828548,,203.78787878787878,1,L18_NIRS-2019-08-24_001_trial01.txt,75.0
4,30.143999999999995,0.45489273500000005,-0.364355893,0.9197691579999999,-0.12604358709000002,-0.46126381399999994,0.903745585,0.896842464,0.39325284699999996,0.948792503,1.4996576,0.293128242,0.19514229500000002,,203.78787878787878,1,L18_NIRS-2019-08-24_001_trial01.txt,75.0
5,31.423999999999996,0.625164411,0.0971575052,1.18112833,0.12343487739999999,-0.24481204200000004,1.1252768400000002,0.924805968,0.442675566,0.9397194319999999,1.5324688300000002,0.32477417999999997,0.22020025000000004,,203.78787878787878,1,L18_NIRS-2019-08-24_001_trial01.txt,75.0
6,32.70399999999999,0.751337542,0.5377223040000001,1.31846722,0.252614858,-0.157250619,1.17939045,0.9464613850000001,0.47136851400000007,0.9269575910000001,1.5466958199999996,0.33443218199999997,0.217997492,,203.78787878787878,1,L18_NIRS-2019-08-24_001_trial01.txt,75.0
7,33.983999999999995,0.7481995619999999,0.7605365300000001,1.21540631,0.14561030020000001,-0.278414404,1.0056002240000002,0.9457999529999999,0.44415226500000005,0.8766618559999999,1.5228684600000002,0.308379293,0.16087911000000002,,203.78787878787878,1,L18_NIRS-2019-08-24_001_trial01.txt,75.0
8,35.263999999999996,0.596834114,0.679145456,0.85059664,-0.1772216,-0.5537242330000001,0.670829063,0.9251339819999999,0.348529326,0.887726075,1.47176014,0.26388491599999997,0.10840328180000003,,203.78787878787878,1,L18_NIRS-2019-08-24_001_trial01.txt,75.0
9,36.544,0.385384586,0.39997694699999997,0.497422036,-0.5246013700000001,-0.8039858800000002,0.42693812499999995,0.9030737590000001,0.22564394699999996,0.9176378319999999,1.4155564799999998,0.23545500999999996,0.0819249307,,203.78787878787878,1,L18_NIRS-2019-08-24_001_trial01.txt,75.0
10,37.824,0.197106201,0.08538804058,0.231956412,-0.7790953500000001,-0.9286241089999999,0.33137186199999996,0.9085568479999999,0.12438057229999999,0.9741703950000001,1.3817048200000002,0.239218413,0.11654820429999999,,203.78787878787878,1,L18_NIRS-2019-08-24_001_trial01.txt,75.0
11,39.104,0.141848723,-0.06674006369999999,0.17418827800000003,-0.787428923,-0.880572759,0.37965825400000003,0.9343370870000001,0.08580530880000001,1.0827055300000001,1.3902523399999998,0.272395327,0.18179696799999998,,203.78787878787878,1,L18_NIRS-2019-08-24_001_trial01.txt,75.0
12,40.384,0.258694162,0.07998822358999999,0.3847029169999999,-0.534806603,-0.709370383,0.5366234430000001,0.9724361590000001,0.1263174541,1.11798022,1.44094655,0.321055726,0.25055080499999993,,203.78787878787878,1,L18_NIRS-2019-08-24_001_trial01.txt,75.0
13,41.664,0.44023302300000006,0.388381838,0.68121084,-0.2292117823,-0.534860018,0.7107075900000001,0.9896687609999999,0.20295120499999997,1.1416267899999997,1.4901028099999998,0.36475944,0.31189764400000003,,203.78787878787878,1,L18_NIRS-2019-08-24_001_trial01.txt,75.0
14,42.944,0.604452893,0.75743184,0.967303569,0.039807573299999996,-0.36070490200000005,0.940671429,0.997160122,0.286827989,1.13975383,1.53767365,0.397517723,0.350362871,,203.78787878787878,1,L18_NIRS-2019-08-24_001_trial01.txt,75.0
15,44.224,0.6605250420000001,1.0268892840000001,1.0661920500000002,0.182133989,-0.258460014,1.11145461,0.9939577119999999,0.33660527,1.13109696,1.54978175,0.416040356,0.370173285,,203.78787878787878,1,L18_NIRS-2019-08-24_001_trial01.txt,75.0
16,45.504,0.649784472,1.18369285,1.1373258,0.252953394,-0.220860758,1.19750264,0.971439725,0.35068515400000005,1.06992666,1.53624089,0.416211587,0.358969136,,203.78787878787878,1,L18_NIRS-2019-08-24_001_trial01.txt,75.0
17,46.78399999999999,0.59363393,1.2328469100000001,1.0701836999999998,0.236854158,-0.27074021,1.15982712,0.958438752,0.338893863,1.0358309,1.50702049,0.4019491540000001,0.33020428700000004,,203.78787878787878,1,L18_NIRS-2019-08-24_001_trial01.txt,75.0
18,48.06400000000001,0.5539710689999999,1.23213764,1.02435185,0.21242643400000003,-0.341550098,1.0585158899999998,0.9467494320000001,0.315475145,1.03067647,1.47305431,0.388399614,0.311874334,,203.78787878787878,1,L18_NIRS-2019-08-24_001_trial01.txt,75.0
19,49.344,0.630048757,1.32275136,1.0607585800000001,0.31620935299999997,-0.300280657,1.0804242499999999,0.9295898130000001,0.314282975,1.0129726130000003,1.46076022,0.38973507700000004,0.313467223,,203.78787878787878,1,L18_NIRS-2019-08-24_001_trial01.txt,75.0
20,50.624,0.7406944,1.43798563,1.20209855,0.45696147099999995,-0.18964188299999998,1.1764205100000003,0.922629298,0.32185692499999996,0.9802321519999999,1.46001765,0.40405565500000007,0.33859026600000003,,203.78787878787878,1,L18_NIRS-2019-08-24_001_trial01.txt,75.0
21,51.903999999999996,0.8410129630000001,1.5432086999999999,1.31158297,0.590697042,-0.0756640287,1.25823774,0.9379542620000001,0.331691992,0.9649356040000001,1.46471921,0.416860534,0.359588935,,203.78787878787878,1,L18_NIRS-2019-08-24_001_trial01.txt,75.0
22,53.184000000000005,0.8588730459999999,1.5411395300000001,1.2951975,0.611365119,-0.07806532390000001,1.1923706100000002,0.948475406,0.316733027,0.9598837379999999,1.4477051900000002,0.4026248819999999,0.35214618099999995,,203.78787878787878,1,L18_NIRS-2019-08-24_001_trial01.txt,75.0
23,54.464,0.7693845990000001,1.3874590599999999,1.1290392000000002,0.466395553,-0.236242063,0.9581486390000002,0.9495219510000001,0.267059661,0.95425226,1.41090449,0.367309117,0.3231227,,203.78787878787878,1,L18_NIRS-2019-08-24_001_trial01.txt,75.0
24,55.74400000000001,0.6325223249999999,1.080907165,0.954671093,0.222260725,-0.46073643200000003,0.683710198,0.936138937,0.18663664900000002,0.907288544,1.35638494,0.33026351800000003,0.283962687,,203.78787878787878,1,L18_NIRS-2019-08-24_001_trial01.txt,75.0
25,57.024,0.5059121309999999,0.681889187,0.7329380779999999,-0.002740332429999998,-0.6142269520000001,0.515988585,0.9104172570000001,0.0895543773,0.9171304150000001,1.30112131,0.31815225500000005,0.277139811,,203.78787878787878,1,L18_NIRS-2019-08-24_001_trial01.txt,75.0
26,58.303999999999995,0.499261202,0.41080825199999993,0.6566188180000001,-0.006374475219999999,-0.5422640559999999,0.6051328199999999,0.8802452119999998,0.0277656466,0.9458965379999998,1.28939643,0.33637184000000003,0.300088856,,203.78787878787878,1,L18_NIRS-2019-08-24_001_trial01.txt,75.0
27,59.584,0.5908589510000001,0.361036485,0.7791920699999999,0.211321072,-0.322566134,0.8701456890000001,0.8761819630000002,0.0202178375,0.9993274080000001,1.3067127799999998,0.371920027,0.333740873,,203.78787878787878,1,L18_NIRS-2019-08-24_001_trial01.txt,75.0
28,60.86399999999999,0.734614369,0.494634173,1.002659033,0.536155493,-0.08774167827,1.13574226,0.894486924,0.0553274297,1.04739862,1.33614527,0.40170781999999994,0.35938085,,203.78787878787878,1,L18_NIRS-2019-08-24_001_trial01.txt,75.0
29,62.144000000000005,0.8404955669999999,0.620931267,1.1187387599999998,0.7428818840000001,0.023574714689,1.2567996,0.8960645320000001,0.082617096,1.08868305,1.3447852900000001,0.39796617800000006,0.35813866000000005,,203.78787878787878,1,L18_NIRS-2019-08-24_001_trial01.txt,75.0
30,63.42399999999999,0.802236409,0.5588068700000001,1.0049228649999997,0.710773406,-0.052575572843000004,1.16014053,0.888608324,0.05991403409999999,1.053886518,1.3111461299999998,0.364640312,0.320636127,,203.78787878787878,1,L18_NIRS-2019-08-24_001_trial01.txt,75.0
31,64.704,0.6521207230000001,0.2595108568,0.735845961,0.46684819299999997,-0.25419191100000005,0.901454012,0.856979007,-0.01960135076,1.0045405720000002,1.2526982,0.31667103,0.27004571799999993,,203.78787878787878,1,L18_NIRS-2019-08-24_001_trial01.txt,75.0
32,65.984,0.49738226399999996,-0.14432496160000002,0.474227666,0.20954835399999996,-0.43457380300000004,0.6501565770000001,0.839406582,-0.12562033970000003,1.008226563,1.19276566,0.281030842,0.239286012,,203.78787878787878,1,L18_NIRS-2019-08-24_001_trial01.txt,75.0
33,67.264,0.5190524030000001,-0.358868397,0.432022379,0.17988026799999995,-0.399178838,0.635787746,0.8287942859999999,-0.187760773,1.06817012,1.1778856899999999,0.27451195100000003,0.23312024399999998,,203.78787878787878,1,L18_NIRS-2019-08-24_001_trial01.txt,75.0
34,68.544,0.703807384,-0.263778462,0.653281054,0.45941661,-0.1620821518,0.861210636,0.8417683979999999,-0.16759609499999997,1.11210229,1.20335261,0.30201208100000004,0.25966245899999996,,203.78787878787878,1,L18_NIRS-2019-08-24_001_trial01.txt,75.0
35,69.824,0.936337523,0.036823135900000005,1.0384992419999999,0.868145505,0.11812281506,1.1055113300000001,0.86765968,-0.08929784449999999,1.1128052600000002,1.25911978,0.332462928,0.288469921,,203.78787878787878,1,L18_NIRS-2019-08-24_001_trial01.txt,75.0
36,71.104,1.0692462600000001,0.27214284099999997,1.22485905,1.11165927,0.22801061099999997,1.1584038600000002,0.8837408,-0.0236326346,1.08019376,1.29584322,0.330791211,0.26112573499999997,,203.78787878787878,1,L18_NIRS-2019-08-24_001_trial01.txt,75.0
37,72.38399999999999,0.999517904,0.235681702,1.090585616,1.036555281,0.0765949197,0.9247193059999999,0.8871404960000001,-0.024310931799999998,0.9580338389999999,1.28395736,0.294052338,0.19576148799999998,,203.78787878787878,1,L18_NIRS-2019-08-24_001_trial01.txt,75.0
38,73.66399999999999,0.8029295099999999,-0.026248858993999997,0.72939354,0.687537361,-0.2458278564,0.515406788,0.865774275,-0.0776554573,0.840314469,1.2436314400000001,0.240309579,0.128355977,,203.78787878787878,1,L18_NIRS-2019-08-24_001_trial01.txt,75.0
39,74.94399999999999,0.625455816,-0.366476371,0.42386785099999996,0.293659084,-0.5481376689999999,0.1391730221,0.8532048470000001,-0.15557057800000001,0.798032997,1.1948617799999999,0.20081361700000003,0.08284959630000001,,203.78787878787878,1,L18_NIRS-2019-08-24_001_trial01.txt,75.0
40,76.22399999999999,0.618329064,-0.5311163050000001,0.256841109,0.140250968,-0.597907915,0.05908798209999999,0.8611211049999999,-0.19421803900000004,0.897367528,1.17974753,0.20604108000000002,0.08240581189999999,,203.78787878787878,1,L18_NIRS-2019-08-24_001_trial01.txt,75.0
41,77.50399999999999,0.8046527240000001,-0.38872864599999996,0.379850172,0.402531724,-0.33214739,0.343635634,0.8842187110000002,-0.160942702,1.0035601650000001,1.2126797799999998,0.25833550499999997,0.13876885300000003,,203.78787878787878,1,L18_NIRS-2019-08-24_001_trial01.txt,75.0
42,78.784,1.105593923,0.03166664270999999,0.779035014,0.980399902,0.10198999962,0.837207727,0.901488904,-0.07212867099999998,1.1551586600000001,1.28651799,0.32694338500000003,0.222322394,,203.78787878787878,1,L18_NIRS-2019-08-24_001_trial01.txt,75.0
43,80.064,1.368124,0.577022106,1.19470012,1.59788916,0.49326222500000005,1.3304746,0.895289025,0.03928562039,1.2289703400000003,1.3577733200000002,0.37036183500000003,0.280577366,,203.78787878787878,1,L18_NIRS-2019-08-24_001_trial01.txt,75.0
44,81.34400000000001,1.43935025,0.989432457,1.37285761,1.9456328900000002,0.670470657,1.61956255,0.8786709439999999,0.11490601950000001,1.23153406,1.38065091,0.37872423,0.29787182,,203.78787878787878,1,L18_NIRS-2019-08-24_001_trial01.txt,75.0
45,82.624,1.31482861,1.14027823,1.2528766199999999,1.9184919700000003,0.609103791,1.6173017,0.840082175,0.13692918,1.17211527,1.3468039600000001,0.34969029799999996,0.273054448,,203.78787878787878,1,L18_NIRS-2019-08-24_001_trial01.txt,75.0
46,83.904,1.024524398,0.9130537569999999,0.912836739,1.5109933600000003,0.32044470399999997,1.33457035,0.784195497,0.08438697760000001,1.0836540700000001,1.2666036699999998,0.298692833,0.22073347399999999,,203.78787878787878,1,L18_NIRS-2019-08-24_001_trial01.txt,75.0
47,85.184,0.67720012,0.41482731800000006,0.498322638,0.9528278560000001,-0.033143929100000004,0.9365141600000001,0.7490387380000001,-0.02005362463,0.97302827,1.1803226299999998,0.24760867700000003,0.175979443,,203.78787878787878,1,L18_NIRS-2019-08-24_001_trial01.txt,75.0
48,86.464,0.47087301299999995,-0.04510610481999999,0.25576765100000004,0.5733522909999998,-0.219485527,0.739731539,0.745073095,-0.1069817968,0.8814362230000002,1.1238942,0.227351729,0.15359858799999998,,203.78787878787878,1,L18_NIRS-2019-08-24_001_trial01.txt,75.0
49,87.744,0.5533827649999999,-0.12554077629,0.386101356,0.6862709170000001,-0.0520414162,0.9638323699999999,0.758548547,-0.1113766718,0.9526610490000001,1.14022956,0.26405997000000003,0.20229443199999997,,203.78787878787878,1,L18_NIRS-2019-08-24_001_trial01.txt,75.0
50,89.02399999999999,0.832247797,0.2618600378,0.8425062459999999,1.22032443,0.39978074399999997,1.5587955,0.7819854470000001,-0.007301256809999998,1.0110894570000002,1.22934622,0.33317391500000004,0.275011322,,203.78787878787878,1,L18_NIRS-2019-08-24_001_trial01.txt,75.0
51,90.304,1.1381849999999998,0.905614535,1.3775235399999999,1.8782277800000002,0.8866420639999999,2.1959956200000006,0.819757313,0.14604115299999998,1.0660306499999996,1.3216886300000001,0.39560073100000004,0.347915208,,203.78787878787878,1,L18_NIRS-2019-08-24_001_trial01.txt,75.0
52,91.58399999999999,1.34098606,1.5229114700000002,1.66946079,2.34202274,1.18490787,2.6240123599999996,0.8370604500000001,0.28699464999999996,1.16559671,1.3760186200000002,0.42596972099999997,0.378619817,,203.78787878787878,1,L18_NIRS-2019-08-24_001_trial01.txt,75.0
53,92.86399999999999,1.35640355,1.84877692,1.74118451,2.4475822999999997,1.19934415,2.70237352,0.824905637,0.36265055,1.1355787999999998,1.37428684,0.409116991,0.375718214,,203.78787878787878,1,L18_NIRS-2019-08-24_001_trial01.txt,75.0
54,94.14399999999999,1.1985581399999998,1.78700285,1.57500562,2.24838703,0.993390064,2.48418698,0.790216587,0.35352858299999995,1.0698697000000001,1.3275632099999999,0.36478009499999997,0.34913740899999995,,203.78787878787878,1,L18_NIRS-2019-08-24_001_trial01.txt,75.0
55,95.424,1.012487311,1.5201857400000003,1.27245087,1.9576678900000002,0.7587826650000001,2.22598288,0.7691368689999999,0.313673207,1.0074783520000001,1.2673507900000003,0.335803171,0.32150443999999995,,203.78787878787878,1,L18_NIRS-2019-08-24_001_trial01.txt,75.0
56,96.704,0.9632794219999999,1.3722513799999998,1.1478955899999999,1.8686568100000003,0.713027957,2.15602725,0.7600421579999999,0.30579094500000004,1.0545093800000003,1.2440534200000002,0.343450026,0.34876197,,203.78787878787878,1,L18_NIRS-2019-08-24_001_trial01.txt,75.0
57,97.984,1.06211976,1.4911176099999999,1.36213649,2.03974824,0.8562595490000001,2.33534316,0.7768435330000001,0.36256538900000007,1.08144066,1.2739854999999998,0.380815712,0.395231949,,203.78787878787878,1,L18_NIRS-2019-08-24_001_trial01.txt,75.0
58,99.264,1.2037064100000001,1.69107534,1.60902292,2.2713270600000004,0.9964542689999998,2.4830094700000003,0.8115948669999999,0.431342055,1.10499533,1.3072593399999999,0.40431865600000005,0.43009791700000005,,203.78787878787878,1,L18_NIRS-2019-08-24_001_trial01.txt,75.0
59,100.48,1.2732593444444447,1.7153929555555556,1.6340211,2.287009733333333,0.9901922955555558,2.441612366666667,0.8218510055555553,0.45020055000000003,1.1091723333333334,1.3164575444444446,0.40617961444444445,0.4192102588888889,,203.78787878787878,1,L18_NIRS-2019-08-24_001_trial01.txt,75.0
