,time,S1_D2_HbO,S1_D1_HbO,S2_D2_HbO,S3_D4_HbO,S3_D3_HbO,S2_D3_HbO,S1_D2_HbR,S1_D1_HbR,S2_D2_HbR,S3_D4_HbR,S3_D3_HbR,S2_D3_HbR,Var14,score,labelnum,filename,total_time
0,284.736,-0.7911049059999999,-0.04038653888,-0.05747633550000001,-3.935558210000001,-0.38637997599999996,-0.42530348500000004,-0.587130244,-0.15534792800000002,0.0432975521,-0.133555795,-0.21622589199999998,0.006082847989999999,,229.8181818181818,1,L18_NIRS-2019-09-01_008_trial04.txt,52.0
1,286.016,-0.5615174039999999,0.15028133549999997,0.24060249100000003,-3.7432979700000004,-0.18462445600000002,-0.12353482688000002,-0.5340124079999999,-0.11528660899999998,0.11364859239999998,-0.09683706500000001,-0.16983577200000002,0.073498625,,229.8181818181818,1,L18_NIRS-2019-09-01_008_trial04.txt,52.0
2,287.296,-0.34984214699999994,0.31591112899999996,0.507503524,-3.5490762700000005,0.001814331380000002,0.15059670549999998,-0.485826478,-0.082710567,0.17184687599999998,-0.0599290225,-0.131431122,0.132747209,,229.8181818181818,1,L18_NIRS-2019-09-01_008_trial04.txt,52.0
3,288.576,-0.1617811873,0.43121289999999995,0.734116473,-3.3665910800000005,0.16732371,0.37244005499999994,-0.44299905900000003,-0.059668568199999994,0.21951904100000003,-0.026430684299999996,-0.1025581112,0.178220958,,229.8181818181818,1,L18_NIRS-2019-09-01_008_trial04.txt,52.0
4,289.85600000000005,-0.02095126643000001,0.46979037299999993,0.8928226589999999,-3.2358835800000003,0.286166562,0.5180951399999999,-0.40651740700000005,-0.0467423189,0.254622749,-0.0033263154450999997,-0.0815642181,0.210261816,,229.8181818181818,1,L18_NIRS-2019-09-01_008_trial04.txt,52.0
5,291.13599999999997,0.0678046365,0.44899735500000004,0.9983177979999998,-3.16379027,0.351346045,0.5983472950000001,-0.37992387400000005,-0.043352606800000006,0.284253365,0.014727343479999998,-0.068041833,0.232484381,,229.8181818181818,1,L18_NIRS-2019-09-01_008_trial04.txt,52.0
6,292.41600000000005,0.06433714040000002,0.335666231,1.00948636,-3.1709710099999997,0.358668997,0.615867754,-0.368394969,-0.05800627270000001,0.30104588900000007,0.0261293361,-0.059385008,0.246864256,,229.8181818181818,1,L18_NIRS-2019-09-01_008_trial04.txt,52.0
7,293.696,-0.025463758359999998,0.174342452,0.9301245669999998,-3.2474727700000003,0.32398252899999996,0.5823814169999999,-0.373588085,-0.079933622,0.29786835300000003,0.029373949599999997,-0.0549932174,0.251663919,,229.8181818181818,1,L18_NIRS-2019-09-01_008_trial04.txt,52.0
8,294.976,-0.1471291939,0.03514510614,0.8011233970000001,-3.3727969200000003,0.25608803199999997,0.5069821510000001,-0.3863211160000001,-0.09237366059999999,0.276409334,0.0263862936,-0.0518117713,0.24587043299999997,,229.8181818181818,1,L18_NIRS-2019-09-01_008_trial04.txt,52.0
9,296.256,-0.272814061,-0.0737402861,0.6480457020000001,-3.52263869,0.15543069799999998,0.383574277,-0.4013818409999999,-0.09343043949999999,0.24700826499999998,0.017214726599999997,-0.05617108319999999,0.23111207399999997,,229.8181818181818,1,L18_NIRS-2019-09-01_008_trial04.txt,52.0
10,297.536,-0.369854889,-0.14904031499999998,0.517308802,-3.67185691,0.053168358181000006,0.259682457,-0.408709012,-0.082991012,0.223175422,0.005526368986999999,-0.0621120613,0.21648545800000002,,229.8181818181818,1,L18_NIRS-2019-09-01_008_trial04.txt,52.0
11,298.816,-0.48303977899999995,-0.254714972,0.384564576,-3.8267201799999997,-0.06445011279999999,0.12086613830000001,-0.41083086399999996,-0.07182847299999999,0.20517596999999999,-0.005281296069999999,-0.06697020229999999,0.20474452699999998,,229.8181818181818,1,L18_NIRS-2019-09-01_008_trial04.txt,52.0
12,300.096,-0.547816611,-0.314508962,0.305270052,-3.9212996999999996,-0.137285531,0.024362582339999998,-0.403952985,-0.0575832573,0.20037022399999999,-0.005083729510000001,-0.0616890037,0.203634989,,229.8181818181818,1,L18_NIRS-2019-09-01_008_trial04.txt,52.0
13,301.37600000000003,-0.55666756,-0.3204770819999999,0.277530307,-3.94840308,-0.141283936,-0.009189928790000001,-0.38933915999999996,-0.0365850489,0.20116446999999998,0.006615364261000001,-0.044871826499999996,0.214036276,,229.8181818181818,1,L18_NIRS-2019-09-01_008_trial04.txt,52.0
14,302.656,-0.5482868919999999,-0.305559775,0.26047576699999997,-3.95258242,-0.12618783299999997,-0.0153185603,-0.375606217,-0.008553670743,0.19570584200000002,0.0194601575,-0.0273627678,0.222760985,,229.8181818181818,1,L18_NIRS-2019-09-01_008_trial04.txt,52.0
15,303.93600000000004,-0.5525272099999999,-0.291879379,0.22706563500000004,-3.9565150699999996,-0.130369379,-0.029576948999999998,-0.36963788599999997,0.015502994790000002,0.18227834,0.030076424,-0.0170233799,0.22305191300000002,,229.8181818181818,1,L18_NIRS-2019-09-01_008_trial04.txt,52.0
16,305.216,-0.625868456,-0.33115361899999995,0.1277361943,-3.9973677899999998,-0.193961715,-0.1100572205,-0.375657146,0.027115507499999997,0.15755545999999998,0.0316234946,-0.024272744899999997,0.208109814,,229.8181818181818,1,L18_NIRS-2019-09-01_008_trial04.txt,52.0
17,306.496,-0.755516996,-0.410154421,-0.014885173849999999,-4.02600479,-0.29564884799999996,-0.244003327,-0.392577332,0.032176304399999994,0.1170778039,0.0367036699,-0.0454312244,0.180780688,,229.8181818181818,1,L18_NIRS-2019-09-01_008_trial04.txt,52.0
18,307.77599999999995,-0.925764255,-0.5074971720000001,-0.17772048099999999,-4.0429556700000004,-0.413394977,-0.407683122,-0.42090919400000004,0.038481634300000005,0.0645668398,0.0457840152,-0.0711578319,0.14705768900000002,,229.8181818181818,1,L18_NIRS-2019-09-01_008_trial04.txt,52.0
19,309.056,-1.0298384199999997,-0.49622328099999996,-0.297048713,-4.00887542,-0.468840848,-0.516165615,-0.44363716200000003,0.0642652439,0.009575428850000001,0.0571182532,-0.08313822159999999,0.11782706899999999,,229.8181818181818,1,L18_NIRS-2019-09-01_008_trial04.txt,52.0
20,310.33599999999996,-1.028559045,-0.355256202,-0.33044603200000006,-3.9240828100000003,-0.433854746,-0.523571861,-0.45028055600000005,0.1139483915,-0.039049457100000004,0.0731424965,-0.08132509900000001,0.09751446769999998,,229.8181818181818,1,L18_NIRS-2019-09-01_008_trial04.txt,52.0
21,311.616,-0.9329049340000001,-0.1286620202,-0.289221742,-3.8000084100000002,-0.33221956399999997,-0.44954779600000006,-0.43725602300000005,0.177602388,-0.0726159639,0.0923543751,-0.0671455038,0.08576394579999999,,229.8181818181818,1,L18_NIRS-2019-09-01_008_trial04.txt,52.0
22,312.896,-0.8333972109999997,0.04470556513,-0.225173697,-3.6863951800000003,-0.231209696,-0.369953785,-0.416472874,0.22603695699999998,-0.0860443082,0.110116243,-0.0543840129,0.07772060030000001,,229.8181818181818,1,L18_NIRS-2019-09-01_008_trial04.txt,52.0
23,314.176,-0.774920949,0.10870457999999998,-0.175407423,-3.60913805,-0.16489984600000002,-0.331157066,-0.397597949,0.247473768,-0.08417288390000001,0.11964997800000002,-0.04814321220000001,0.06861706529999999,,229.8181818181818,1,L18_NIRS-2019-09-01_008_trial04.txt,52.0
24,315.456,-0.744748779,0.074338072,-0.1263194221,-3.5503019,-0.12574729599999998,-0.311835337,-0.38340664399999996,0.24820748800000003,-0.07325796609999999,0.130985491,-0.047244974499999995,0.0603145902,,229.8181818181818,1,L18_NIRS-2019-09-01_008_trial04.txt,52.0
25,316.736,-0.6935875800000001,0.0288936135,-0.021132747527,-3.50612893,-0.0746101492,-0.2565467,-0.372633023,0.23639420400000005,-0.0444697445,0.142863507,-0.041999347799999996,0.0626153811,,229.8181818181818,1,L18_NIRS-2019-09-01_008_trial04.txt,52.0
26,318.016,-0.6011543180000001,0.0481322127,0.12507752860000002,-3.4861698,-0.0012901872799999992,-0.1535393832,-0.36063164600000003,0.223844857,-0.0021995576269999992,0.148331953,-0.028239317100000005,0.0757085247,,229.8181818181818,1,L18_NIRS-2019-09-01_008_trial04.txt,52.0
27,319.29599999999994,-0.49648704600000004,0.1120883512,0.26609181299999995,-3.5008626900000004,0.06311351039999999,-0.0491479407,-0.34827163299999997,0.212634467,0.0376840731,0.14203270899999998,-0.0159764565,0.09004611570000001,,229.8181818181818,1,L18_NIRS-2019-09-01_008_trial04.txt,52.0
28,320.576,-0.439948298,0.14010656999999999,0.32059238,-3.55886019,0.072923446,-0.0207855632,-0.337744446,0.198895976,0.0605977052,0.124375635,-0.01072775078,0.09630166209999999,,229.8181818181818,1,L18_NIRS-2019-09-01_008_trial04.txt,52.0
29,321.85600000000005,-0.507611653,0.039570008180000005,0.239304947,-3.6793093499999996,-0.0069623292100000015,-0.1221019233,-0.33916660499999995,0.174604546,0.06054433280000001,0.1004950362,-0.016397089,0.08871908279999999,,229.8181818181818,1,L18_NIRS-2019-09-01_008_trial04.txt,52.0
30,323.136,-0.7061088819999999,-0.1984504935,0.017645443599999994,-3.8750375900000003,-0.18378983649999997,-0.36253594200000006,-0.35570683,0.139244612,0.041769795299999996,0.06609286839999999,-0.033702199200000005,0.0670664056,,229.8181818181818,1,L18_NIRS-2019-09-01_008_trial04.txt,52.0
31,324.41600000000005,-0.9777266229999999,-0.5227092289999999,-0.29445745399999995,-4.11893872,-0.410504007,-0.679603547,-0.37460289299999994,0.0995907616,0.01471493691,0.025523368729999996,-0.055422496700000004,0.0391170427,,229.8181818181818,1,L18_NIRS-2019-09-01_008_trial04.txt,52.0
32,325.696,-1.12291139,-0.7335911930000001,-0.49377277499999994,-4.29601535,-0.547432257,-0.8965093369999998,-0.373162783,0.0702421765,0.01123350273,-0.005569029817999999,-0.0564044262,0.028443220800000002,,229.8181818181818,1,L18_NIRS-2019-09-01_008_trial04.txt,52.0
33,326.976,-0.956037666,-0.601388523,-0.32854212400000005,-4.269989689999999,-0.45904860599999997,-0.7994858610000001,-0.33722845200000007,0.0850028157,0.07367109050000001,0.0019595447939999996,-0.019500380285,0.0723486146,,229.8181818181818,1,L18_NIRS-2019-09-01_008_trial04.txt,52.0
34,328.256,-0.518935366,-0.1732678606,0.1729746613,-4.06668374,-0.17002937779,-0.39005852800000007,-0.274192494,0.14293780000000003,0.186356019,0.0351350599,0.045014678,0.16178486200000003,,229.8181818181818,1,L18_NIRS-2019-09-01_008_trial04.txt,52.0
35,329.536,0.003454544400000001,0.362213861,0.806529246,-3.7910336399999998,0.20350405519999998,0.1624128475,-0.207593705,0.219866028,0.30404713299999997,0.075937736,0.1137217384,0.261914496,,229.8181818181818,1,L18_NIRS-2019-09-01_008_trial04.txt,52.0
36,330.816,0.40104811900000004,0.785018573,1.3297891199999998,-3.56572833,0.5286938250000001,0.6442068569999999,-0.16488539900000002,0.280179533,0.38421691199999997,0.10819136060000001,0.16320669499999998,0.332290935,,229.8181818181818,1,L18_NIRS-2019-09-01_008_trial04.txt,52.0
37,332.096,0.548181136,0.9357236899999999,1.58305295,-3.46744404,0.710198488,0.906873665,-0.156391364,0.303104159,0.40957148299999996,0.11752230100000001,0.17913626400000002,0.357084391,,229.8181818181818,1,L18_NIRS-2019-09-01_008_trial04.txt,52.0
38,333.37600000000003,0.491563424,0.8373835210000001,1.5940429199999997,-3.4830577100000006,0.741959868,0.940309675,-0.16924735200000002,0.289033129,0.39509540499999996,0.10765674799999998,0.164111549,0.34321334100000006,,229.8181818181818,1,L18_NIRS-2019-09-01_008_trial04.txt,52.0
39,334.656,0.22635695979999998,0.5351178520000001,1.3416329999999999,-3.6127355800000003,0.6161277670000002,0.757188295,-0.20739956099999998,0.24686126099999997,0.335100203,0.0823815611,0.12464850399999998,0.296408675,,229.8181818181818,1,L18_NIRS-2019-09-01_008_trial04.txt,52.0
40,335.872,-0.08883071894444444,0.20437937911111112,0.9507240888888889,-3.828939888888889,0.41376733888888884,0.46014953777777784,-0.25386643555555555,0.20273748666666666,0.24714852222222225,0.03779221911111111,0.08901464211111111,0.23414631666666663,,229.8181818181818,1,L18_NIRS-2019-09-01_008_trial04.txt,52.0
