,time,S1_D2_HbO,S1_D1_HbO,S2_D2_HbO,S3_D4_HbO,S3_D3_HbO,S2_D3_HbO,S1_D2_HbR,S1_D1_HbR,S2_D2_HbR,S3_D4_HbR,S3_D3_HbR,S2_D3_HbR,Var14,score,labelnum,filename,total_time
0,615.3599999999999,0.320023817,0.534560278,0.39435937499999996,1.63862658,-4.12888626,1.0240429,-0.06462379329999998,-0.173429054,-0.039364070900000006,3.5707233300000008,2.0774421500000004,0.46825920100000007,,224.75757575757575,1,L24_NIRS-2019-09-09_003_trial07.txt,51.0
1,616.6400000000001,0.48039963299999994,0.7182638499999999,0.484281617,1.81687907,-4.084052299999999,1.03073784,-0.0599933851,-0.18699599,-0.028623847100000006,3.5894421300000006,2.0735341100000007,0.4917784820000001,,224.75757575757575,1,L24_NIRS-2019-09-09_003_trial07.txt,51.0
2,617.92,0.5872675829999999,0.909700449,0.477941578,2.0082441099999997,-4.053529360000001,0.9976128980000001,-0.0490393036,-0.19359264000000004,-0.0056653276499999995,3.59983643,2.0669845899999997,0.5132884360000001,,224.75757575757575,1,L24_NIRS-2019-09-09_003_trial07.txt,51.0
3,619.2,0.5988440290000001,0.954141409,0.35792509299999997,2.1123071799999997,-4.08958481,0.89096645,-0.0302580538,-0.177310512,0.024827400729999997,3.6190564699999994,2.05383391,0.5206157509999999,,224.75757575757575,1,L24_NIRS-2019-09-09_003_trial07.txt,51.0
4,620.4799999999999,0.548069467,0.839283827,0.212710278,2.1690371600000002,-4.112936299999999,0.819747599,0.0043496381699,-0.18551244200000003,0.06527006059999998,3.64595402,2.054608,0.538833698,,224.75757575757575,1,L24_NIRS-2019-09-09_003_trial07.txt,51.0
5,621.76,0.46148373299999995,0.6747445049999999,0.1024801694,2.204571,-4.11587901,0.7572024770000001,0.038980828700000004,-0.19929407699999996,0.10948616050000001,3.68890366,2.07699281,0.5552147,,224.75757575757575,1,L24_NIRS-2019-09-09_003_trial07.txt,51.0
6,623.04,0.39098514399999995,0.548825443,0.0326691401,2.26336173,-4.09985481,0.700677384,0.0808285092,-0.20539256299999997,0.159407252,3.7581735099999998,2.1173090300000004,0.576585184,,224.75757575757575,1,L24_NIRS-2019-09-09_003_trial07.txt,51.0
7,624.3199999999999,0.391447087,0.5258812359999999,0.021947658000000002,2.34911815,-4.05590192,0.683423723,0.118998146,-0.19377176999999995,0.21924850900000004,3.83181772,2.1816939900000003,0.608978807,,224.75757575757575,1,L24_NIRS-2019-09-09_003_trial07.txt,51.0
8,625.6000000000001,0.44412920600000005,0.5562563710000001,0.03934608269999999,2.4345813000000005,-4.005167869999999,0.698720666,0.157624637,-0.177756676,0.28512646,3.8890707900000003,2.25208165,0.6417458309999999,,224.75757575757575,1,L24_NIRS-2019-09-09_003_trial07.txt,51.0
9,626.8799999999999,0.5089630210000001,0.584682707,0.08957438129999999,2.49530005,-3.9431622600000003,0.7280523339999999,0.17729174999999997,-0.16783711499999998,0.325918361,3.9212125900000006,2.32315072,0.6622017330000001,,224.75757575757575,1,L24_NIRS-2019-09-09_003_trial07.txt,51.0
10,628.16,0.5884070699999999,0.6965150070000001,0.173042184,2.5511965,-3.90597968,0.7577911700000001,0.175204869,-0.14728312400000002,0.337067205,3.9425279600000005,2.35994842,0.653022294,,224.75757575757575,1,L24_NIRS-2019-09-09_003_trial07.txt,51.0
11,629.4399999999999,0.692748745,0.867603366,0.299123227,2.57836397,-3.8592426200000007,0.8524892979999998,0.160213456,-0.15680754,0.321651629,3.9421677,2.36720913,0.6406839370000001,,224.75757575757575,1,L24_NIRS-2019-09-09_003_trial07.txt,51.0
12,630.72,0.7894890419999999,1.061120343,0.42555115599999993,2.58626863,-3.8385273500000006,0.9020721290000001,0.124176804,-0.170563131,0.279483604,3.9431507800000007,2.3459732200000003,0.608820028,,224.75757575757575,1,L24_NIRS-2019-09-09_003_trial07.txt,51.0
13,632.0,0.80057505,1.14408762,0.46406639799999994,2.55968134,-3.8969188499999996,0.8183259940000001,0.0800130093,-0.161679033,0.22093677,3.96265424,2.29386503,0.5517133390000001,,224.75757575757575,1,L24_NIRS-2019-09-09_003_trial07.txt,51.0
14,633.28,0.7629340200000001,1.08241482,0.441009923,2.5232890799999996,-3.9457956900000006,0.7705333729999999,0.050159733399999996,-0.15331070399999996,0.174318653,3.9839866199999996,2.24946251,0.513241677,,224.75757575757575,1,L24_NIRS-2019-09-09_003_trial07.txt,51.0
15,634.5600000000001,0.706982825,0.9520096280000001,0.411451866,2.48963512,-3.93514318,0.8274679690000001,0.0465519853,-0.138620498,0.16159868,4.00983963,2.23554292,0.5026757869999999,,224.75757575757575,1,L24_NIRS-2019-09-09_003_trial07.txt,51.0
16,635.84,0.652850658,0.761637387,0.366756276,2.4738758999999995,-3.8839984199999997,0.9355431800000001,0.0706565889,-0.148531412,0.169722383,4.04727277,2.25218755,0.518527931,,224.75757575757575,1,L24_NIRS-2019-09-09_003_trial07.txt,51.0
17,637.12,0.6179899659999999,0.607094351,0.327554553,2.4597457,-3.8743848099999996,0.9873404450000001,0.098570828,-0.17701133399999996,0.178667268,4.0806433900000005,2.2681121400000004,0.523559289,,224.75757575757575,1,L24_NIRS-2019-09-09_003_trial07.txt,51.0
18,638.3999999999999,0.658098147,0.5605013350000001,0.37086038099999996,2.416948,-3.8904771599999997,1.02200362,0.11741529399999999,-0.21338361099999997,0.182626267,4.09293489,2.28231706,0.5158831560000001,,224.75757575757575,1,L24_NIRS-2019-09-09_003_trial07.txt,51.0
19,639.6800000000001,0.710324775,0.5314407130000001,0.40847493499999993,2.3324839599999994,-3.95050594,1.0041486179999999,0.11673727900000001,-0.2606521359999999,0.160257808,4.097928769999999,2.28821964,0.48666604199999997,,224.75757575757575,1,L24_NIRS-2019-09-09_003_trial07.txt,51.0
20,640.96,0.752209836,0.547156335,0.4309322829999999,2.2322116999999997,-4.025543839999999,0.9336381810000001,0.09345604390000001,-0.292626629,0.10855424849999999,4.11115528,2.2821726599999996,0.418796926,,224.75757575757575,1,L24_NIRS-2019-09-09_003_trial07.txt,51.0
21,642.24,0.8842878879999999,0.755870728,0.5685876129999999,2.2062795900000003,-3.95725718,0.9616314040000002,0.0629004936,-0.29309816599999994,0.055096661199999994,4.12042454,2.23655065,0.372172588,,224.75757575757575,1,L24_NIRS-2019-09-09_003_trial07.txt,51.0
22,643.5200000000001,1.077052107,1.163517929,0.8174780800000001,2.2335697,-3.7826050700000002,1.08953132,0.029068202699999997,-0.229643884,0.0214858146,4.123715079999999,2.15888053,0.34466888500000004,,224.75757575757575,1,L24_NIRS-2019-09-09_003_trial07.txt,51.0
23,644.8,1.22992931,1.53996815,1.0348004990000002,2.27885423,-3.6269532399999997,1.18195889,0.007248667345000001,-0.14864376799999998,0.00683797276,4.127405609999999,2.05506564,0.341432971,,224.75757575757575,1,L24_NIRS-2019-09-09_003_trial07.txt,51.0
24,646.08,1.2938746300000001,1.74666462,1.1617697999999999,2.2908054700000005,-3.595882530000001,1.1241740299999998,-0.010375288144,-0.08635773330000002,0.0009970242865999998,4.11315175,1.9304597700000001,0.337650937,,224.75757575757575,1,L24_NIRS-2019-09-09_003_trial07.txt,51.0
25,647.3599999999999,1.29360046,1.8301333499999999,1.24955812,2.2303657800000005,-3.67730485,0.9877215749999999,-0.030702903999999996,-0.022825845669999997,0.005299487477,4.065477799999999,1.8137813900000002,0.3185660149999999,,224.75757575757575,1,L24_NIRS-2019-09-09_003_trial07.txt,51.0
26,648.6400000000001,1.2539511300000001,1.8261254400000002,1.27032853,2.17864235,-3.7473437299999994,0.9127596709999999,-0.049398101300000004,0.010169529069999999,0.013104470099999998,4.0150975099999995,1.7370982899999998,0.294859179,,224.75757575757575,1,L24_NIRS-2019-09-09_003_trial07.txt,51.0
27,649.92,1.19345482,1.7887457899999997,1.17982231,2.1830584199999996,-3.7811397100000006,0.914740314,-0.0636738492,-0.03097382882,0.0016272386899999999,3.97908869,1.7303978700000002,0.26097355499999997,,224.75757575757575,1,L24_NIRS-2019-09-09_003_trial07.txt,51.0
28,651.2,1.220415,1.81463952,1.1311189099999999,2.29759087,-3.693327169999999,1.018060438,-0.08069095899999999,-0.150471788,-0.0317974523,3.94187898,1.7475596799999997,0.247637233,,224.75757575757575,1,L24_NIRS-2019-09-09_003_trial07.txt,51.0
29,652.4799999999999,1.33929321,1.93060744,1.1863964299999998,2.45421452,-3.5684256499999996,1.19537175,-0.10894650609999998,-0.299610751,-0.0817674364,3.88442211,1.7653733199999997,0.235871522,,224.75757575757575,1,L24_NIRS-2019-09-09_003_trial07.txt,51.0
30,653.76,1.47695322,2.05113578,1.27384105,2.61933983,-3.5212045000000005,1.27071843,-0.14592304000000003,-0.46329150100000005,-0.14779206400000003,3.8269239899999996,1.7636757299999999,0.213341459,,224.75757575757575,1,L24_NIRS-2019-09-09_003_trial07.txt,51.0
31,655.04,1.58632962,2.14373117,1.3435456000000001,2.7586691300000004,-3.5361015700000005,1.23909671,-0.197817128,-0.624212195,-0.22550811899999998,3.7604794199999994,1.7423736399999998,0.18941666100000001,,224.75757575757575,1,L24_NIRS-2019-09-09_003_trial07.txt,51.0
32,656.3199999999999,1.58019582,2.1438823499999997,1.29838351,2.8159728900000003,-3.61135679,1.08799986,-0.260060996,-0.7510406159999999,-0.30150154500000004,3.69304279,1.69574616,0.15469937,,224.75757575757575,1,L24_NIRS-2019-09-09_003_trial07.txt,51.0
33,657.6000000000001,1.5080689700000003,2.10624298,1.19617407,2.78729953,-3.6555985799999995,0.9563685550000001,-0.315494146,-0.81912225,-0.34765722200000004,3.66533331,1.6463917900000002,0.12454630600000001,,224.75757575757575,1,L24_NIRS-2019-09-09_003_trial07.txt,51.0
34,658.8799999999999,1.40687053,2.02337709,1.0546492889999999,2.8053931299999997,-3.6216585100000005,0.868000572,-0.346047779,-0.8624845710000001,-0.357234822,3.65606668,1.59569792,0.107757034,,224.75757575757575,1,L24_NIRS-2019-09-09_003_trial07.txt,51.0
35,660.16,1.2865553600000001,1.8479426499999998,0.9203186090000001,2.9452400499999998,-3.60657309,0.766448513,-0.35517062400000005,-0.8980164199999999,-0.35197254899999997,3.6032337400000003,1.57466149,0.10824462499999998,,224.75757575757575,1,L24_NIRS-2019-09-09_003_trial07.txt,51.0
36,661.4399999999999,1.2663026800000001,1.69998723,0.911689802,3.1235866999999997,-3.62626597,0.715842824,-0.346708563,-0.9391946789999999,-0.330389677,3.5155883699999997,1.58501223,0.121841099,,224.75757575757575,1,L24_NIRS-2019-09-09_003_trial07.txt,51.0
37,662.72,1.38666212,1.72170171,1.0624617319999998,3.3363032399999994,-3.61743492,0.794424656,-0.320889386,-0.9814867570000001,-0.28970495199999996,3.41036264,1.6330793499999998,0.152670456,,224.75757575757575,1,L24_NIRS-2019-09-09_003_trial07.txt,51.0
38,664.0,1.5609888,1.9014071000000001,1.24490061,3.5153457699999997,-3.56053409,0.970040025,-0.306398088,-1.0226208300000001,-0.263575519,3.29351087,1.7029138799999999,0.184443073,,224.75757575757575,1,L24_NIRS-2019-09-09_003_trial07.txt,51.0
39,665.28,1.61415708,2.05759655,1.26251116,3.5517686999999993,-3.55105006,1.06424513,-0.315141931,-1.06912836,-0.26639569399999996,3.1975587900000004,1.76405119,0.192529556,,224.75757575757575,1,L24_NIRS-2019-09-09_003_trial07.txt,51.0
40,666.24,1.5516936600000002,2.0778640800000003,1.1721674199999998,3.414058,-3.62182172,1.01734782,-0.33850923999999993,-1.08926714,-0.28404919600000006,3.1573967400000003,1.7860997400000003,0.16754121400000002,,224.75757575757575,1,L24_NIRS-2019-09-09_003_trial07.txt,51.0
