,time,S1_D2_HbO,S1_D1_HbO,S2_D2_HbO,S3_D4_HbO,S3_D3_HbO,S2_D3_HbO,S1_D2_HbR,S1_D1_HbR,S2_D2_HbR,S3_D4_HbR,S3_D3_HbR,S2_D3_HbR,Var14,score,labelnum,filename,total_time
0,556.992,-7.752144230000001,-20.4122241,0.14487624400000002,1.19143652,-0.23537734100000002,-3.3906298500000007,-2.09801078,2.42208311,-0.174937331,1.6407508700000002,-0.317715943,-2.1133965,,165.6969696969697,1,L24_NIRS-2019-09-05_007_trial05.txt,104.0
1,558.272,-7.6052557799999985,-20.1328732,0.19426249,1.19282631,-0.1252822684,-3.4517773499999995,-2.0957428900000004,2.60847099,-0.180293287,1.61178578,-0.31276858999999996,-2.0450849,,165.6969696969697,1,L24_NIRS-2019-09-05_007_trial05.txt,104.0
2,559.5519999999999,-7.463188910000001,-20.018892400000002,0.207170933,1.1656201300000002,-0.09296053999999998,-3.40006846,-2.1323634399999998,2.68493447,-0.18786366899999998,1.5782310899999998,-0.319111928,-2.0369619400000003,,165.6969696969697,1,L24_NIRS-2019-09-05_007_trial05.txt,104.0
3,560.832,-7.31658793,-19.9446983,0.234040496,1.1799207,-0.0971998984,-3.36874509,-2.18280941,2.71525586,-0.192052058,1.5429405200000001,-0.326451154,-2.02462259,,165.6969696969697,1,L24_NIRS-2019-09-05_007_trial05.txt,104.0
4,562.1120000000001,-7.17403455,-19.9576104,0.327367813,1.27068433,-0.04663796044,-3.3012603600000006,-2.2431829,2.66013417,-0.191880842,1.50302887,-0.331424527,-2.02061334,,165.6969696969697,1,L24_NIRS-2019-09-05_007_trial05.txt,104.0
5,563.392,-7.0763938,-20.070296000000003,0.45298421499999997,1.4154199600000001,0.07295107249999999,-3.2197392699999994,-2.3070812,2.5334149299999997,-0.195270301,1.4663138400000002,-0.33558202000000004,-2.03823298,,165.6969696969697,1,L24_NIRS-2019-09-05_007_trial05.txt,104.0
6,564.6719999999999,-7.026265339999999,-20.137445800000002,0.522538018,1.52585533,0.19214487,-3.17327197,-2.33764799,2.46238237,-0.20315009599999997,1.4335817100000001,-0.340380051,-2.05536005,,165.6969696969697,1,L24_NIRS-2019-09-05_007_trial05.txt,104.0
7,565.952,-7.09322559,-20.2151075,0.47665219500000006,1.53733735,0.215277245,-3.2374143500000003,-2.34054464,2.40845517,-0.211870108,1.3998574800000003,-0.35118962200000003,-2.08150452,,165.6969696969697,1,L24_NIRS-2019-09-05_007_trial05.txt,104.0
8,567.232,-7.162950950000001,-20.2545692,0.374423582,1.4803791,0.150040885,-3.34620437,-2.3511117699999997,2.3867489099999997,-0.20698034299999998,1.37480702,-0.358232578,-2.0950048199999998,,165.6969696969697,1,L24_NIRS-2019-09-05_007_trial05.txt,104.0
9,568.512,-7.176342070000001,-20.1083205,0.304660426,1.42909624,0.06906010770000001,-3.4165855300000003,-2.34741697,2.4392932899999997,-0.18491036600000002,1.36571046,-0.350984373,-2.08888778,,165.6969696969697,1,L24_NIRS-2019-09-05_007_trial05.txt,104.0
10,569.792,-7.122536510000001,-19.814386499999998,0.341687501,1.44601261,0.06348215809999999,-3.3686268200000002,-2.32649,2.5566717300000006,-0.15279294700000004,1.376269,-0.31929181800000006,-2.06748514,,165.6969696969697,1,L24_NIRS-2019-09-05_007_trial05.txt,104.0
11,571.072,-7.035269909999999,-19.448486300000003,0.5069923760000001,1.57577086,0.19278141899999998,-3.2071484900000002,-2.3157509399999996,2.70874727,-0.119297196,1.3982601799999999,-0.280260441,-2.0563249,,165.6969696969697,1,L24_NIRS-2019-09-05_007_trial05.txt,104.0
12,572.352,-6.95796177,-19.080755,0.666305307,1.7382577100000003,0.34733941999999995,-3.0726483200000003,-2.3220751,2.86331011,-0.103933745,1.41469956,-0.257909501,-2.06033268,,165.6969696969697,1,L24_NIRS-2019-09-05_007_trial05.txt,104.0
13,573.632,-6.9084438399999994,-18.750831100000003,0.717609355,1.84641131,0.405183142,-3.0498745699999996,-2.33980282,3.01335546,-0.10628092900000001,1.4150560899999998,-0.25907116299999994,-2.07331762,,165.6969696969697,1,L24_NIRS-2019-09-05_007_trial05.txt,104.0
14,574.912,-6.9101685900000005,-18.524701,0.632189179,1.8624636900000002,0.3171727,-3.16390329,-2.3598873300000003,3.1194020700000005,-0.11232923799999998,1.3981561900000001,-0.274772243,-2.09244326,,165.6969696969697,1,L24_NIRS-2019-09-05_007_trial05.txt,104.0
15,576.192,-6.96423281,-18.4301132,0.46134713399999994,1.81881137,0.1500116427,-3.36347025,-2.37696601,3.17481307,-0.10653785569999999,1.3772380100000001,-0.28348488200000005,-2.1031001199999997,,165.6969696969697,1,L24_NIRS-2019-09-05_007_trial05.txt,104.0
16,577.472,-6.995363839999999,-18.4015107,0.30797854199999997,1.7641616599999999,0.03074156,-3.5149084200000003,-2.3707170300000002,3.21154161,-0.07720088259999999,1.36856335,-0.259665339,-2.0816070600000005,,165.6969696969697,1,L24_NIRS-2019-09-05_007_trial05.txt,104.0
17,578.7519999999998,-7.000842460000001,-18.468478700000002,0.25983998099999994,1.74829416,0.04379949069999999,-3.52044081,-2.34947389,3.2055970100000004,-0.02657781494,1.38010112,-0.19894514400000002,-2.0364546700000004,,165.6969696969697,1,L24_NIRS-2019-09-05_007_trial05.txt,104.0
18,580.0319999999999,-7.036476039999999,-18.6325432,0.317582281,1.75997019,0.1621755127,-3.4155650399999997,-2.3442488900000003,3.1529923899999996,0.03098170459,1.39791552,-0.13683240400000002,-2.0113177,,165.6969696969697,1,L24_NIRS-2019-09-05_007_trial05.txt,104.0
19,581.312,-7.0873984000000005,-18.7625971,0.3977220060000001,1.7889169299999998,0.274442242,-3.2984113600000002,-2.33909895,3.1078795599999998,0.07680332370000001,1.4177563000000002,-0.105298912,-2.00244763,,165.6969696969697,1,L24_NIRS-2019-09-05_007_trial05.txt,104.0
20,582.5919999999999,-7.13243207,-18.6977095,0.440640403,1.83458325,0.293338504,-3.2359926800000003,-2.3137214600000005,3.1227913900000006,0.10032873359999998,1.4243159699999999,-0.11476507,-2.0080385499999998,,165.6969696969697,1,L24_NIRS-2019-09-05_007_trial05.txt,104.0
21,583.872,-7.062229219999999,-18.4838761,0.431271877,1.9003167900000002,0.23777586499999998,-3.2255544199999995,-2.30951424,3.18646402,0.10535773100000001,1.4189200400000002,-0.149572132,-2.0123304,,165.6969696969697,1,L24_NIRS-2019-09-05_007_trial05.txt,104.0
22,585.152,-6.921606939999999,-18.230052699999998,0.386141489,1.96081982,0.17501338500000002,-3.25220295,-2.3743439000000004,3.24733247,0.09319833320000001,1.40707889,-0.186731123,-2.00665344,,165.6969696969697,1,L24_NIRS-2019-09-05_007_trial05.txt,104.0
23,586.432,-6.66325704,-18.070577899999996,0.312195863,1.96753568,0.143415835,-3.25743613,-2.54786188,3.30619719,0.07171500530000001,1.4008925800000003,-0.209524612,-1.9769660100000004,,165.6969696969697,1,L24_NIRS-2019-09-05_007_trial05.txt,104.0
24,587.7119999999999,-6.38044025,-18.147431599999997,0.27763880399999996,1.9193059300000002,0.18191082599999997,-3.22441642,-2.75688073,3.30527996,0.0537007871,1.4069891900000002,-0.20654082700000004,-1.93425911,,165.6969696969697,1,L24_NIRS-2019-09-05_007_trial05.txt,104.0
25,588.992,-6.235723640000001,-18.6404608,0.282449433,1.7948951800000004,0.24579699900000002,-3.2403321400000005,-2.99493303,3.0955092800000004,0.033864632500000005,1.41514812,-0.19631491599999998,-1.94347381,,165.6969696969697,1,L24_NIRS-2019-09-05_007_trial05.txt,104.0
26,590.272,-6.17290036,-19.2382046,0.355545085,1.7496975200000002,0.331720377,-3.2633153,-3.1843468,2.75202469,0.021815715899999998,1.44930336,-0.18943643500000001,-1.9931689799999996,,165.6969696969697,1,L24_NIRS-2019-09-05_007_trial05.txt,104.0
27,591.5519999999999,-6.153588500000001,-19.641491000000002,0.41378196300000003,1.7603706899999998,0.361290081,-3.3060640900000005,-3.2520555,2.39756724,0.00865496879,1.4811228200000002,-0.197311441,-2.0461748,,165.6969696969697,1,L24_NIRS-2019-09-05_007_trial05.txt,104.0
28,592.8320000000001,-6.122551970000001,-19.8985871,0.45823912899999997,1.7860364999999998,0.35591416099999995,-3.3379783499999993,-3.2324177999999995,2.0753648100000004,-0.005865489261,1.4869388799999999,-0.21343790399999998,-2.07661829,,165.6969696969697,1,L24_NIRS-2019-09-05_007_trial05.txt,104.0
29,594.1119999999999,-6.11967865,-20.0484398,0.4847405719999999,1.7819493300000002,0.338818838,-3.3487318399999992,-3.19669683,1.80370507,-0.025295370400000006,1.4591586199999997,-0.23488723399999997,-2.08529903,,165.6969696969697,1,L24_NIRS-2019-09-05_007_trial05.txt,104.0
30,595.392,-6.042918780000001,-20.017236499999996,0.48791908599999995,1.7478869,0.343834338,-3.2996022599999995,-3.17885522,1.6866412000000004,-0.045648109699999995,1.4114811,-0.256660602,-2.06318175,,165.6969696969697,1,L24_NIRS-2019-09-05_007_trial05.txt,104.0
31,596.6720000000001,-5.932789959999999,-19.8905386,0.48534378599999994,1.70957468,0.38410323199999996,-3.2306751400000002,-3.1552933999999997,1.68026412,-0.0603257094,1.36045363,-0.26868500700000003,-2.024651,,165.6969696969697,1,L24_NIRS-2019-09-05_007_trial05.txt,104.0
32,597.952,-5.89985392,-19.8763958,0.4475247130000001,1.6526850800000001,0.404034187,-3.2495610899999994,-3.1592929599999997,1.66172766,-0.07117092170000001,1.31637665,-0.278934309,-2.01983444,,165.6969696969697,1,L24_NIRS-2019-09-05_007_trial05.txt,104.0
33,599.232,-5.870117710000001,-19.8419464,0.40175163300000005,1.6039632099999999,0.401760263,-3.2917479,-3.15998876,1.67444369,-0.06831436360000001,1.2895717100000001,-0.28189528,-2.0261090299999998,,165.6969696969697,1,L24_NIRS-2019-09-05_007_trial05.txt,104.0
34,600.512,-5.88861586,-19.830381799999998,0.373536798,1.6259610299999998,0.38928091900000006,-3.32973415,-3.1700429000000003,1.6817603199999998,-0.044772547499999996,1.2855470300000003,-0.28233608099999996,-2.03405565,,165.6969696969697,1,L24_NIRS-2019-09-05_007_trial05.txt,104.0
35,601.7920000000001,-5.93420583,-19.885323399999997,0.41001794699999994,1.73805795,0.432945669,-3.324443939999999,-3.192445,1.6956083100000001,-0.015587266720000001,1.2763966999999998,-0.280240136,-2.0446016300000003,,165.6969696969697,1,L24_NIRS-2019-09-05_007_trial05.txt,104.0
36,603.072,-6.00261929,-19.9279672,0.5172897790000001,1.9691691199999997,0.544374807,-3.266794639999999,-3.2378423299999994,1.71464091,-0.000110771606,1.2615526899999998,-0.291669531,-2.0773859100000003,,165.6969696969697,1,L24_NIRS-2019-09-05_007_trial05.txt,104.0
37,604.352,-5.91716823,-19.5729483,0.731019138,2.38002791,0.795313369,-3.0758308999999997,-3.2583768899999996,1.88938409,0.002171715767,1.2480686699999999,-0.30741932599999994,-2.10208861,,165.6969696969697,1,L24_NIRS-2019-09-05_007_trial05.txt,104.0
38,605.632,-5.6970629200000005,-18.8736385,0.999143811,2.89931579,1.132089401,-2.84240092,-3.2689273199999995,2.1587394000000004,-0.01334369417,1.2187586,-0.326593867,-2.12560687,,165.6969696969697,1,L24_NIRS-2019-09-05_007_trial05.txt,104.0
39,606.912,-5.45144301,-18.1247975,1.15833327,3.31905384,1.36204247,-2.69649371,-3.25033768,2.43544458,-0.0475538093,1.17725617,-0.362139508,-2.1395469300000003,,165.6969696969697,1,L24_NIRS-2019-09-05_007_trial05.txt,104.0
40,608.192,-5.31172814,-17.7026446,1.1181344600000003,3.4310334600000005,1.35109215,-2.7090102299999996,-3.2103389,2.58588036,-0.09434003440000001,1.11659477,-0.40734882999999994,-2.1325985,,165.6969696969697,1,L24_NIRS-2019-09-05_007_trial05.txt,104.0
41,609.472,-5.4382961299999995,-17.8944081,0.9110110350000001,3.2658604100000006,1.1139740640000002,-2.8898108799999997,-3.2102592700000003,2.49164593,-0.12996459500000002,1.05697679,-0.45923023399999996,-2.1326414,,165.6969696969697,1,L24_NIRS-2019-09-05_007_trial05.txt,104.0
42,610.7520000000001,-5.6747308599999995,-18.498566999999998,0.653983211,2.9622051899999997,0.808982601,-3.06280337,-3.22543519,2.23530282,-0.142991007,1.009062153,-0.49507741800000005,-2.1237505299999997,,165.6969696969697,1,L24_NIRS-2019-09-05_007_trial05.txt,104.0
43,612.0319999999999,-5.97434297,-19.2848117,0.4739445469999999,2.6727914200000003,0.5993918199999999,-3.2099090599999998,-3.26417243,1.8957478,-0.127487894,0.9931734200000001,-0.502264327,-2.12716268,,165.6969696969697,1,L24_NIRS-2019-09-05_007_trial05.txt,104.0
44,613.312,-6.16677246,-19.838852199999998,0.504322924,2.5676738400000003,0.639677002,-3.2511934699999996,-3.30451685,1.6402750599999998,-0.08744917099999999,1.01106883,-0.471309235,-2.13879163,,165.6969696969697,1,L24_NIRS-2019-09-05_007_trial05.txt,104.0
45,614.5919999999999,-6.167751350000001,-20.0994738,0.6840845090000001,2.6311285,0.851677227,-3.18499356,-3.34842055,1.4850420199999999,-0.0428519555,1.042285,-0.425193018,-2.1529387399999997,,165.6969696969697,1,L24_NIRS-2019-09-05_007_trial05.txt,104.0
46,615.8720000000001,-6.16889269,-20.116605300000003,0.8445834160000001,2.71951973,1.0228800750000002,-3.1189078599999998,-3.33383896,1.4401969600000002,-0.016215777200000003,1.07233122,-0.390589235,-2.15870343,,165.6969696969697,1,L24_NIRS-2019-09-05_007_trial05.txt,104.0
47,617.1519999999999,-6.21587731,-19.9766037,0.913558456,2.7278711400000004,1.0595256999999998,-3.09874834,-3.2688827700000003,1.4641215,-0.0165710953,1.1324213300000001,-0.37822233,-2.16453165,,165.6969696969697,1,L24_NIRS-2019-09-05_007_trial05.txt,104.0
48,618.432,-6.328265330000001,-19.8057608,0.898889202,2.78879852,1.000966665,-3.09462177,-3.18463199,1.4953515899999998,-0.0388309616,1.14746047,-0.393353276,-2.1772485599999998,,165.6969696969697,1,L24_NIRS-2019-09-05_007_trial05.txt,104.0
49,619.7119999999999,-6.34110585,-19.4911077,0.9666771820000001,3.0560479000000003,1.07307139,-2.9627173300000003,-3.0711623,1.58873618,-0.059204380599999995,1.0547850440000002,-0.39809459900000005,-2.1671953999999998,,165.6969696969697,1,L24_NIRS-2019-09-05_007_trial05.txt,104.0
50,620.992,-6.311351600000001,-19.148419399999998,1.13462786,3.50635976,1.29689422,-2.7080781800000002,-2.9717349499999997,1.6901798399999997,-0.05388004750000001,0.903668719,-0.38349923500000005,-2.12319829,,165.6969696969697,1,L24_NIRS-2019-09-05_007_trial05.txt,104.0
51,622.272,-6.416618099999999,-18.8763133,1.30270322,3.9893183700000003,1.5053565,-2.4777066499999996,-2.95891685,1.7739101899999998,-0.029123139599999997,0.724037633,-0.369567218,-2.07582601,,165.6969696969697,1,L24_NIRS-2019-09-05_007_trial05.txt,104.0
52,623.5519999999999,-6.663056420000001,-18.876484999999995,1.28825213,4.23863277,1.4591191599999997,-2.42603215,-3.03052803,1.75590522,-0.0146405327,0.539581251,-0.38255621500000003,-2.0440875000000007,,165.6969696969697,1,L24_NIRS-2019-09-05_007_trial05.txt,104.0
53,624.8320000000001,-7.047106980000001,-19.1372781,1.0650077150000001,4.1333103399999995,1.139019,-2.55164604,-3.1178699199999995,1.6638441000000004,-0.0160577063,0.38854600899999997,-0.40319515599999994,-2.0144024099999998,,165.6969696969697,1,L24_NIRS-2019-09-05_007_trial05.txt,104.0
54,626.1119999999999,-7.35177078,-19.3416571,0.8209190630000001,3.83145649,0.7840603680000001,-2.6820248500000003,-3.1783556699999997,1.5994689600000003,-0.0217257158,0.341167227,-0.40377955199999993,-1.9911862800000002,,165.6969696969697,1,L24_NIRS-2019-09-05_007_trial05.txt,104.0
55,627.392,-7.39203282,-19.2973789,0.7635949710000001,3.68284638,0.6809470799999999,-2.62524958,-3.19612784,1.59886419,-0.0228153376,0.35600843399999993,-0.36903542,-1.9732780700000003,,165.6969696969697,1,L24_NIRS-2019-09-05_007_trial05.txt,104.0
56,628.6720000000001,-7.141784299999999,-18.991657800000002,0.9962966299999998,3.8614509000000004,0.982580634,-2.34812959,-3.1694550699999997,1.6876193700000002,-0.018142538599999997,0.344419187,-0.29116897599999997,-1.9483504200000001,,165.6969696969697,1,L24_NIRS-2019-09-05_007_trial05.txt,104.0
57,629.952,-6.82128221,-18.673633400000007,1.31607092,4.16995403,1.42645654,-2.0134421,-3.1365899600000002,1.76157349,-0.015071628200000001,0.32726733,-0.217975109,-1.9234663300000001,,165.6969696969697,1,L24_NIRS-2019-09-05_007_trial05.txt,104.0
58,631.232,-6.66726905,-18.358400000000003,1.48684752,4.41018148,1.6778376400000004,-1.8569410100000003,-3.1328977000000005,1.8378050000000001,-0.015535195799999998,0.301833739,-0.188206214,-1.91291857,,165.6969696969697,1,L24_NIRS-2019-09-05_007_trial05.txt,104.0
59,632.512,-6.716482310000001,-18.222073299999998,1.41510307,4.38547597,1.59421545,-2.03208835,-3.1624041399999996,1.8280973799999998,-0.0317421159,0.255722747,-0.206330021,-1.93857122,,165.6969696969697,1,L24_NIRS-2019-09-05_007_trial05.txt,104.0
60,633.7920000000001,-6.832396950000001,-18.289992200000004,1.22753486,4.1652173,1.35175825,-2.3324944400000005,-3.2012638100000004,1.7298420700000001,-0.037384752,0.21452362100000003,-0.224225985,-1.9640293,,165.6969696969697,1,L24_NIRS-2019-09-05_007_trial05.txt,104.0
61,635.072,-6.869210999999998,-18.3699561,1.14293501,3.9305366800000003,1.2172626000000002,-2.4917773100000007,-3.2114161799999996,1.67586838,-0.01314020688,0.20530932699999999,-0.20548517900000002,-1.96613195,,165.6969696969697,1,L24_NIRS-2019-09-05_007_trial05.txt,104.0
62,636.352,-6.788800250000001,-18.352166500000003,1.25699854,3.79482516,1.28979122,-2.41217786,-3.18643969,1.69251952,0.032538773099999994,0.225691824,-0.15473966,-1.9431699799999997,,165.6969696969697,1,L24_NIRS-2019-09-05_007_trial05.txt,104.0
63,637.632,-6.696450109999999,-18.2849711,1.4295237200000002,3.7145788299999998,1.4335280400000001,-2.1375418699999997,-3.16068822,1.7161382099999998,0.0704095487,0.24583975799999996,-0.115868551,-1.9020188100000002,,165.6969696969697,1,L24_NIRS-2019-09-05_007_trial05.txt,104.0
64,638.912,-6.6517637800000005,-18.2217024,1.5004349499999998,3.7052324800000003,1.48986847,-1.8923448199999995,-3.1439822099999994,1.68895303,0.08693455209999999,0.253874783,-0.12195413,-1.8696933999999998,,165.6969696969697,1,L24_NIRS-2019-09-05_007_trial05.txt,104.0
65,640.192,-6.65731394,-18.1496819,1.4232991900000003,3.68552761,1.4279064899999998,-1.76023693,-3.13546298,1.60070625,0.0809244154,0.245497619,-0.16561689400000001,-1.84875319,,165.6969696969697,1,L24_NIRS-2019-09-05_007_trial05.txt,104.0
66,641.472,-6.76636222,-18.159098399999998,1.2341271600000001,3.6292166299999997,1.28334475,-1.72294713,-3.15116808,1.5008043500000001,0.05602682600000001,0.24761100900000002,-0.22374947400000003,-1.8377024,,165.6969696969697,1,L24_NIRS-2019-09-05_007_trial05.txt,104.0
67,642.7520000000001,-6.900338760000001,-18.326354499999997,1.03749931,3.5793165200000003,1.18804446,-1.6728861000000002,-3.16927166,1.44479958,0.0414462608,0.264141537,-0.24955792400000001,-1.8019753900000002,,165.6969696969697,1,L24_NIRS-2019-09-05_007_trial05.txt,104.0
68,644.0319999999999,-6.995885370000001,-18.4282082,0.910831046,3.59094508,1.20195133,-1.6179859,-3.1719793399999996,1.35463768,0.053866275500000005,0.29637801,-0.22987277600000003,-1.7567347500000001,,165.6969696969697,1,L24_NIRS-2019-09-05_007_trial05.txt,104.0
69,645.312,-7.028997970000001,-18.346141699999997,0.8665827260000001,3.6663170000000003,1.28066639,-1.6132846200000004,-3.15635299,1.3545958300000003,0.091103576,0.332667027,-0.184158234,-1.72343644,,165.6969696969697,1,L24_NIRS-2019-09-05_007_trial05.txt,104.0
70,646.5919999999999,-7.03429122,-18.140431,0.818737217,3.71111375,1.2764636699999998,-1.65025914,-3.13377991,1.3853204000000001,0.133029587,0.351008129,-0.149351682,-1.70010653,,165.6969696969697,1,L24_NIRS-2019-09-05_007_trial05.txt,104.0
71,647.8720000000001,-7.01290286,-17.8549574,0.758759969,3.67721342,1.1811260000000001,-1.7901814999999999,-3.12711114,1.4042804800000002,0.16237245100000003,0.319889769,-0.142561074,-1.71081553,,165.6969696969697,1,L24_NIRS-2019-09-05_007_trial05.txt,104.0
72,649.1519999999999,-7.04210978,-17.6704989,0.723588163,3.6147477100000005,1.0602505300000002,-1.88808771,-3.1369564000000003,1.39412579,0.18235804500000002,0.275944713,-0.158170252,-1.71622539,,165.6969696969697,1,L24_NIRS-2019-09-05_007_trial05.txt,104.0
73,650.432,-7.2002956,-17.5642917,0.673732518,3.5217402500000006,0.9185157860000001,-1.9243906100000001,-3.1765735,1.4648957099999997,0.175142962,0.25980939999999997,-0.19381068299999998,-1.71969483,,165.6969696969697,1,L24_NIRS-2019-09-05_007_trial05.txt,104.0
74,651.7119999999999,-7.40922729,-17.6042384,0.5888236969999999,3.38402878,0.7835614860000001,-1.94037875,-3.2201124500000007,1.57136787,0.150863069,0.257782847,-0.226419433,-1.70418039,,165.6969696969697,1,L24_NIRS-2019-09-05_007_trial05.txt,104.0
75,652.992,-7.59245101,-17.6241989,0.5031626029999999,3.2571167799999996,0.681273675,-1.9849435199999999,-3.25937898,1.57350424,0.125298563,0.273383818,-0.24838215399999997,-1.6980914500000002,,165.6969696969697,1,L24_NIRS-2019-09-05_007_trial05.txt,104.0
76,654.272,-7.74210028,-17.7078865,0.43724734199999993,3.1774795499999997,0.603599715,-2.0694690099999997,-3.29341861,1.55938541,0.110423614,0.30617253200000005,-0.2625532,-1.71602739,,165.6969696969697,1,L24_NIRS-2019-09-05_007_trial05.txt,104.0
77,655.5519999999999,-7.811656360000001,-17.8420671,0.419858345,3.06728706,0.545023195,-2.13063018,-3.2997438299999997,1.5527469699999998,0.113195652,0.332112383,-0.26114637700000004,-1.7322682999999999,,165.6969696969697,1,L24_NIRS-2019-09-05_007_trial05.txt,104.0
78,656.8320000000001,-7.83874567,-17.9963193,0.43950429900000004,2.88919822,0.522248623,-2.16984196,-3.30591108,1.51337044,0.12404349099999998,0.331518843,-0.250504043,-1.7594530899999998,,165.6969696969697,1,L24_NIRS-2019-09-05_007_trial05.txt,104.0
79,658.1119999999999,-7.902662480000001,-18.2318942,0.46407965199999995,2.8020114099999995,0.532407053,-2.17691413,-3.3265749700000002,1.3903094100000002,0.14411322699999998,0.34730031100000003,-0.240465855,-1.7881598799999998,,165.6969696969697,1,L24_NIRS-2019-09-05_007_trial05.txt,104.0
80,659.392,-7.98636573,-18.4383759,0.445829444,2.8051406400000003,0.5494016320000001,-2.1930661999999996,-3.35145191,1.2654629099999999,0.15955998300000002,0.375067573,-0.23850892499999995,-1.8086355700000003,,165.6969696969697,1,L24_NIRS-2019-09-05_007_trial05.txt,104.0
81,660.6720000000001,-8.053133059999999,-18.619517600000002,0.355023529,2.78229014,0.5074104929999999,-2.2576270599999995,-3.36205916,1.16255615,0.169011831,0.391236655,-0.248228265,-1.8181357200000001,,165.6969696969697,1,L24_NIRS-2019-09-05_007_trial05.txt,104.0
82,661.44,-8.08826415,-18.717298,0.295919735,2.7546704,0.45059074,-2.32936225,-3.3629623,1.1329788,0.17504735999999999,0.400357545,-0.256846005,-1.82024015,,165.6969696969697,1,L24_NIRS-2019-09-05_007_trial05.txt,104.0
