,time,S1_D2_HbO,S1_D1_HbO,S2_D2_HbO,S3_D4_HbO,S3_D3_HbO,S2_D3_HbO,S1_D2_HbR,S1_D1_HbR,S2_D2_HbR,S3_D4_HbR,S3_D3_HbR,S2_D3_HbR,Var14,score,labelnum,filename,total_time
0,929.8560000000001,-0.691931549,-24.4806382,-0.9849670930000001,-1.34026735,-0.511089679,-0.7797930519999999,0.29269104599999995,-7.26512999,0.17992186599999999,0.515382532,0.3997490999999999,0.4644341139999999,,200.6969696969697,1,L24_NIRS-2019-09-07_002_trial09.txt,69.0
1,931.1360000000001,-0.656881269,-24.4372109,-0.9754652979999999,-1.3597444799999998,-0.45892398100000004,-0.697657014,0.322289018,-7.2098154800000005,0.212381617,0.5693511759999998,0.45041336200000004,0.5067628,,200.6969696969697,1,L24_NIRS-2019-09-07_002_trial09.txt,69.0
2,932.4160000000002,-0.5143106640000001,-24.204780500000002,-0.8465919209999999,-1.17200907,-0.281121962,-0.475854468,0.34888068099999997,-7.163463930000001,0.24788615900000002,0.6559691559999999,0.527382558,0.564710922,,200.6969696969697,1,L24_NIRS-2019-09-07_002_trial09.txt,69.0
3,933.6959999999999,-0.36791354400000004,-23.971614,-0.665093838,-0.936251635,-0.054742918515,-0.20105422099999998,0.36180315199999996,-7.14851508,0.268469295,0.7357470449999999,0.597196817,0.615300019,,200.6969696969697,1,L24_NIRS-2019-09-07_002_trial09.txt,69.0
4,934.9759999999999,-0.328424052,-23.921327499999997,-0.5623141799999999,-0.824892483,0.039154705500000005,-0.06327139109999999,0.355512756,-7.1720387500000005,0.268875031,0.7913802820000001,0.6102862019999999,0.626912605,,200.6969696969697,1,L24_NIRS-2019-09-07_002_trial09.txt,69.0
5,936.2560000000001,-0.41038759900000005,-24.056299199999998,-0.6063813330000001,-0.9076784889999999,-0.05012104724000001,-0.14662524810000002,0.34038462599999997,-7.21343566,0.25047517199999997,0.8290924929999999,0.575370609,0.596805642,,200.6969696969697,1,L24_NIRS-2019-09-07_002_trial09.txt,69.0
6,937.5359999999998,-0.48494648200000007,-24.1331705,-0.690577085,-1.023347304,-0.157319018,-0.28171309799999994,0.3271309230000001,-7.226600240000001,0.22904785199999997,0.875074039,0.551478738,0.564303313,,200.6969696969697,1,L24_NIRS-2019-09-07_002_trial09.txt,69.0
7,938.8159999999998,-0.539077156,-24.176562299999997,-0.771506464,-1.1231507,-0.26654611000000006,-0.426220364,0.323298591,-7.21715195,0.220744623,0.9356894120000001,0.535292782,0.534095542,,200.6969696969697,1,L24_NIRS-2019-09-07_002_trial09.txt,69.0
8,940.0960000000001,-0.527234905,-24.216381000000002,-0.771781932,-1.21391977,-0.317934297,-0.48342317599999995,0.332894321,-7.20453749,0.222243091,0.986994479,0.535956498,0.521041927,,200.6969696969697,1,L24_NIRS-2019-09-07_002_trial09.txt,69.0
9,941.3759999999999,-0.45564706799999993,-24.215657,-0.679536047,-1.2495184599999998,-0.299610009,-0.42764201,0.34917138999999997,-7.200182240000001,0.23076529799999998,1.0282203499999998,0.5531502070000001,0.5227505910000001,,200.6969696969697,1,L24_NIRS-2019-09-07_002_trial09.txt,69.0
10,942.656,-0.42301439100000005,-24.224444300000005,-0.6000926069999999,-1.3270818,-0.3020041,-0.384690489,0.35224052199999994,-7.200189560000001,0.22902779299999998,1.04830566,0.566067499,0.515539435,,200.6969696969697,1,L24_NIRS-2019-09-07_002_trial09.txt,69.0
11,943.936,-0.43209454900000005,-24.271861300000005,-0.5739159380000001,-1.4417478400000001,-0.348787402,-0.378846383,0.348804469,-7.204804789999999,0.21525760300000002,1.0503872800000003,0.562588291,0.5014463169999999,,200.6969696969697,1,L24_NIRS-2019-09-07_002_trial09.txt,69.0
12,945.216,-0.4861075919999999,-24.371626600000003,-0.6317790889999999,-1.57496331,-0.48084039799999995,-0.483931119,0.343382835,-7.214841249999999,0.197722992,1.04528323,0.53049784,0.471947897,,200.6969696969697,1,L24_NIRS-2019-09-07_002_trial09.txt,69.0
13,946.4960000000001,-0.521781324,-24.4320044,-0.689744225,-1.6824336199999999,-0.564429278,-0.5735844880000001,0.335126017,-7.22230387,0.181311866,1.0347749,0.509250165,0.44406502700000006,,200.6969696969697,1,L24_NIRS-2019-09-07_002_trial09.txt,69.0
14,947.7760000000001,-0.49759560599999997,-24.4390579,-0.6897366739999999,-1.66390095,-0.6169348290000001,-0.612396712,0.336946796,-7.23895323,0.18440758100000001,1.05414181,0.4780862970000001,0.4157357599999999,,200.6969696969697,1,L24_NIRS-2019-09-07_002_trial09.txt,69.0
15,949.0560000000002,-0.4244424970000001,-24.406367799999998,-0.6343373900000001,-1.60455218,-0.6469478399999999,-0.6122772070000001,0.335586038,-7.269154809999999,0.186836003,1.07851211,0.4411343019999999,0.384080356,,200.6969696969697,1,L24_NIRS-2019-09-07_002_trial09.txt,69.0
16,950.336,-0.319541813,-24.2998718,-0.517192776,-1.49495129,-0.6341442199999999,-0.5408894100000001,0.332816871,-7.292537099999999,0.186165865,1.11717224,0.4135318,0.355423677,,200.6969696969697,1,L24_NIRS-2019-09-07_002_trial09.txt,69.0
17,951.616,-0.276983721,-24.224737400000002,-0.44362815299999997,-1.44193376,-0.6819696839999999,-0.536088845,0.314509416,-7.30325569,0.177075462,1.1529287500000003,0.375224207,0.31412392499999997,,200.6969696969697,1,L24_NIRS-2019-09-07_002_trial09.txt,69.0
18,952.8960000000001,-0.273703771,-24.2220569,-0.42721520800000007,-1.45689921,-0.782993394,-0.5844468660000002,0.29818933599999997,-7.311086229999999,0.16967693099999998,1.1719705699999998,0.333589547,0.27642847800000003,,200.6969696969697,1,L24_NIRS-2019-09-07_002_trial09.txt,69.0
19,954.176,-0.30927993100000006,-24.3590222,-0.4943257790000001,-1.4921227099999999,-0.973838282,-0.7601798110000001,0.294275585,-7.346274050000001,0.16716888800000002,1.18671636,0.269669971,0.22588391000000002,,200.6969696969697,1,L24_NIRS-2019-09-07_002_trial09.txt,69.0
20,955.4559999999999,-0.36382124199999993,-24.4391874,-0.5944790419999999,-1.5036150799999999,-1.040823383,-0.90523274,0.27507339399999997,-7.36907669,0.154057299,1.1792882900000001,0.24447002200000006,0.189082167,,200.6969696969697,1,L24_NIRS-2019-09-07_002_trial09.txt,69.0
21,956.7359999999999,-0.32794289900000007,-24.222655600000003,-0.582331073,-1.3749101200000002,-0.885531132,-0.810620578,0.255457041,-7.35290515,0.141614727,1.1516257099999998,0.25340518300000003,0.184677706,,200.6969696969697,1,L24_NIRS-2019-09-07_002_trial09.txt,69.0
22,958.0160000000002,-0.193280732,-23.9359573,-0.47116304500000006,-1.19445529,-0.6378913970000001,-0.571413212,0.236751086,-7.350983919999999,0.129585072,1.09852109,0.25908718799999997,0.19064435600000001,,200.6969696969697,1,L24_NIRS-2019-09-07_002_trial09.txt,69.0
23,959.2959999999999,-0.0628731091,-23.6082383,-0.31238482999999995,-1.039816809,-0.321468497,-0.24932707499999998,0.210451043,-7.326822249999999,0.111379802,1.0419490100000002,0.287546486,0.21416084399999996,,200.6969696969697,1,L24_NIRS-2019-09-07_002_trial09.txt,69.0
24,960.576,-0.0425504098,-23.417297800000004,-0.21102739,-1.016424569,-0.12292559500000003,-0.027558653120000005,0.173775917,-7.28676972,0.09523871980000001,0.980896703,0.304989257,0.23562472199999998,,200.6969696969697,1,L24_NIRS-2019-09-07_002_trial09.txt,69.0
25,961.8560000000001,-0.0611423069,-23.506784699999997,-0.18219965000000002,-1.11200475,-0.21832136000000002,-0.006838238089999999,0.169584927,-7.285501260000001,0.11389447320000001,0.93446891,0.263720247,0.235576988,,200.6969696969697,1,L24_NIRS-2019-09-07_002_trial09.txt,69.0
26,963.1360000000001,-0.03717762625,-23.7146366,-0.20565867799999998,-1.18383967,-0.42923687699999996,-0.09453982879999999,0.20139369000000001,-7.333097140000001,0.154188685,0.9361416659999999,0.20599877000000003,0.219690473,,200.6969696969697,1,L24_NIRS-2019-09-07_002_trial09.txt,69.0
27,964.4160000000002,0.12046064199999999,-23.5347566,-0.13857979869999998,-0.9857178730000001,-0.384075181,0.009806498,0.230700313,-7.33923185,0.185838267,0.977779365,0.21331918699999997,0.22610305800000002,,200.6969696969697,1,L24_NIRS-2019-09-07_002_trial09.txt,69.0
28,965.6959999999999,0.41381991000000007,-23.138056499999998,0.09036115521,-0.4430623130000001,-0.04073473380000001,0.37839886400000006,0.2491399,-7.31780277,0.204360975,1.03428817,0.26961533600000004,0.25752995300000003,,200.6969696969697,1,L24_NIRS-2019-09-07_002_trial09.txt,69.0
29,966.9759999999999,0.7526099910000001,-23.077580199999996,0.374546961,0.1889174837,0.297734199,0.8012408539999999,0.278048713,-7.37122923,0.22132292699999997,1.09581787,0.28754937699999994,0.27635543,,200.6969696969697,1,L24_NIRS-2019-09-07_002_trial09.txt,69.0
30,968.2560000000001,0.901017096,-23.353482899999996,0.553658585,0.632802675,0.5581769999999999,1.0952133500000003,0.28347532799999997,-7.448433140000001,0.212222418,1.15128024,0.30394255100000006,0.282761616,,200.6969696969697,1,L24_NIRS-2019-09-07_002_trial09.txt,69.0
31,969.5359999999998,0.7455904680000001,-24.1150704,0.521996377,0.710007245,0.535499607,1.063217339,0.25979178700000005,-7.56684382,0.18788806,1.17168904,0.291226997,0.25708876700000005,,200.6969696969697,1,L24_NIRS-2019-09-07_002_trial09.txt,69.0
32,970.8159999999998,0.49131516899999994,-25.097152800000003,0.373822632,0.511540569,0.26817880099999997,0.8097317350000001,0.255848667,-7.714331929999998,0.18409049300000002,1.17886598,0.24916056800000003,0.21153665100000002,,200.6969696969697,1,L24_NIRS-2019-09-07_002_trial09.txt,69.0
33,972.0960000000001,0.30913497300000004,-25.7613272,0.226726826,0.327058571,0.059368385700000005,0.57961401,0.268088677,-7.8231804,0.19688022,1.20711081,0.2535465930000001,0.189459774,,200.6969696969697,1,L24_NIRS-2019-09-07_002_trial09.txt,69.0
34,973.3759999999999,0.313696226,-25.784361700000005,0.20827546299999997,0.31830524899999996,0.1147804684,0.575182893,0.282116704,-7.853964760000001,0.210990346,1.2205829099999996,0.316958132,0.21195185700000002,,200.6969696969697,1,L24_NIRS-2019-09-07_002_trial09.txt,69.0
35,974.656,0.43374802,-25.693641399999997,0.29772358599999993,0.44430903499999996,0.320728349,0.726212634,0.29082938999999997,-7.877178979999999,0.22376344199999995,1.19214316,0.381556523,0.25546146,,200.6969696969697,1,L24_NIRS-2019-09-07_002_trial09.txt,69.0
36,975.936,0.577226929,-25.861093099999998,0.388501577,0.5003417320000001,0.39835078900000004,0.890467156,0.322526409,-7.945219490000001,0.25256430399999996,1.13874451,0.36342473899999994,0.276515054,,200.6969696969697,1,L24_NIRS-2019-09-07_002_trial09.txt,69.0
37,977.216,0.5439808700000001,-26.1918131,0.33033710800000005,0.41273780700000007,0.29533105900000006,0.831300983,0.33468329099999994,-8.01472755,0.260229891,1.0668591399999996,0.30036118199999995,0.25666953099999995,,200.6969696969697,1,L24_NIRS-2019-09-07_002_trial09.txt,69.0
38,978.4960000000001,0.382789117,-26.704539099999998,0.1670162096,0.304546655,0.019650048429999997,0.566043952,0.33731213400000004,-8.10819992,0.27139655399999996,0.997924902,0.195132713,0.201107112,,200.6969696969697,1,L24_NIRS-2019-09-07_002_trial09.txt,69.0
39,979.7760000000001,0.24926914800000005,-27.286971100000006,0.006896907220000001,0.23043567599999998,-0.250289384,0.282193358,0.36347914400000003,-8.21780201,0.29883770200000004,0.9463858680000001,0.10876331939999999,0.157261352,,200.6969696969697,1,L24_NIRS-2019-09-07_002_trial09.txt,69.0
40,981.0560000000002,0.0959637331,-27.8621694,-0.158067324,0.186731355,-0.46160321800000004,-0.019941637019999996,0.396720441,-8.30674241,0.323339897,0.9214089590000001,0.07425619180000001,0.143311665,,200.6969696969697,1,L24_NIRS-2019-09-07_002_trial09.txt,69.0
41,982.336,-0.07463427981520002,-28.461295199999995,-0.310229198,0.04602325151999999,-0.590513324,-0.299014699,0.42171509000000007,-8.39760905,0.330192774,0.867167676,0.0765956689,0.161510685,,200.6969696969697,1,L24_NIRS-2019-09-07_002_trial09.txt,69.0
42,983.616,-0.18622635399999998,-29.1033281,-0.40352015799999996,-0.1688213119,-0.701970879,-0.449391172,0.45871407,-8.525540509999999,0.346789138,0.784413858,0.061191932299999995,0.19438463899999997,,200.6969696969697,1,L24_NIRS-2019-09-07_002_trial09.txt,69.0
43,984.8960000000001,-0.167629962,-29.572188999999998,-0.41011339399999996,-0.41205140799999995,-0.818250879,-0.4482346260000001,0.512925392,-8.63533324,0.36101334,0.6975513270000001,0.01948969411,0.218540835,,200.6969696969697,1,L24_NIRS-2019-09-07_002_trial09.txt,69.0
44,986.176,-0.08860198359999998,-29.512857000000004,-0.369287413,-0.46962653200000004,-0.8181310419999999,-0.404956738,0.5213656259999999,-8.66157585,0.337314452,0.6200598609999999,0.0035747091750000003,0.22812497999999998,,200.6969696969697,1,L24_NIRS-2019-09-07_002_trial09.txt,69.0
45,987.4559999999999,0.02222220324,-29.1537669,-0.30314122600000004,-0.273142325,-0.743101665,-0.33087951699999996,0.504492182,-8.640834040000001,0.30854003,0.581818083,-0.023774266280000005,0.21789507600000002,,200.6969696969697,1,L24_NIRS-2019-09-07_002_trial09.txt,69.0
46,988.7359999999999,0.0567568244,-28.9816363,-0.32108751,-0.13074545599999998,-0.7408635460000002,-0.33572560900000004,0.5036776689999999,-8.62494918,0.29386079600000004,0.5709183760000001,-0.0717556172,0.201918108,,200.6969696969697,1,L24_NIRS-2019-09-07_002_trial09.txt,69.0
47,990.0160000000002,-0.121129088062,-29.167081500000002,-0.5186537600000001,-0.319873345,-0.9094067069999999,-0.551426131,0.492295908,-8.62459056,0.26879374100000003,0.5476027149999999,-0.119052384,0.169992572,,200.6969696969697,1,L24_NIRS-2019-09-07_002_trial09.txt,69.0
48,991.2959999999999,-0.399434394,-29.6550655,-0.7818245480000001,-0.69695812,-1.1304412700000002,-0.8364959989999999,0.4690143039999999,-8.65715523,0.252086875,0.5251149030000001,-0.123220365,0.148360732,,200.6969696969697,1,L24_NIRS-2019-09-07_002_trial09.txt,69.0
49,992.576,-0.435473921,-30.110605900000003,-0.8426810540000002,-0.759696701,-1.18211265,-0.8464892980000001,0.5041236990000001,-8.70362545,0.28323110799999995,0.609683655,-0.07262777709999998,0.17875153100000002,,200.6969696969697,1,L24_NIRS-2019-09-07_002_trial09.txt,69.0
50,993.8560000000001,-0.275109043,-30.319234900000005,-0.71070599,-0.542130304,-1.0343376699999998,-0.647923306,0.544266342,-8.73092331,0.30372699000000003,0.7391794789999999,0.03486028158,0.24369432599999996,,200.6969696969697,1,L24_NIRS-2019-09-07_002_trial09.txt,69.0
51,995.1360000000001,-0.0766997875,-30.439661700000006,-0.479584374,-0.22773419300000003,-0.7897671780000001,-0.392920537,0.5487282349999999,-8.76521137,0.29113577100000004,0.8357314420000002,0.150004677,0.31547621,,200.6969696969697,1,L24_NIRS-2019-09-07_002_trial09.txt,69.0
52,996.4160000000002,0.00490074442,-30.693683699999998,-0.314347606,-0.046652376499999995,-0.576071435,-0.22694165900000002,0.507621918,-8.83512498,0.24207932100000001,0.8581982119999999,0.224563595,0.358787711,,200.6969696969697,1,L24_NIRS-2019-09-07_002_trial09.txt,69.0
53,997.6959999999999,-0.06492274748,-31.1605589,-0.36212691799999996,-0.1614946182,-0.638334108,-0.29727756,0.47940817199999997,-8.94509773,0.19702043700000002,0.829556172,0.191834625,0.355721342,,200.6969696969697,1,L24_NIRS-2019-09-07_002_trial09.txt,69.0
54,998.4,-0.17641101,-31.491891,-0.48027407,-0.38725505,-0.78488422,-0.44393223,0.4608588,-9.0211835,0.17113259,0.78055309,0.13753263,0.32935074,,200.6969696969697,1,L24_NIRS-2019-09-07_002_trial09.txt,69.0
