,time,S1_D2_HbO,S1_D1_HbO,S2_D2_HbO,S3_D4_HbO,S3_D3_HbO,S2_D3_HbO,S1_D2_HbR,S1_D1_HbR,S2_D2_HbR,S3_D4_HbR,S3_D3_HbR,S2_D3_HbR,Var14,score,labelnum,filename,total_time
0,14.016,-0.83544111,-1.97945335,-0.814198467,-0.0657993102,-0.754069596,-0.47858433400000006,-0.123548827,-0.154570822,0.01970893495,0.8859080340000001,0.27198686299999997,0.29061562,,214.63636363636363,1,L25_NIRS-2019-09-09_004_trial01.txt,49.0
1,15.295999999999998,-0.836440367,-1.99327681,-0.8053270530000001,-0.138182297,-0.793286771,-0.462532734,-0.11062065400000001,-0.14046182599999998,0.031689964800000005,0.899573331,0.290031724,0.289396411,,214.63636363636363,1,L25_NIRS-2019-09-09_004_trial01.txt,49.0
2,16.576,-0.885709346,-1.9578258899999998,-0.8487585689999999,-0.21465691500000003,-0.8372838870000001,-0.450753438,-0.104190394,-0.126307679,0.031118927499999997,0.9099104859999999,0.301371196,0.285633396,,214.63636363636363,1,L25_NIRS-2019-09-09_004_trial01.txt,49.0
3,17.856,-1.0008047919999998,-1.9537678500000002,-0.9809931100000002,-0.330108342,-0.898293505,-0.514350726,-0.09512679710000001,-0.113849022,0.0308422144,0.9167670410000002,0.308848877,0.282268179,,214.63636363636363,1,L25_NIRS-2019-09-09_004_trial01.txt,49.0
4,19.136,-1.1043046999999997,-1.9758473199999997,-1.12436114,-0.49291883100000006,-0.9590047820000001,-0.6137237609999999,-0.0815750929,-0.0998038156,0.0331038856,0.9191681469999999,0.314210848,0.281234129,,214.63636363636363,1,L25_NIRS-2019-09-09_004_trial01.txt,49.0
5,20.416,-1.15239617,-2.04770845,-1.22826534,-0.721876824,-1.020099072,-0.7148802369999999,-0.0638599909,-0.08757255109999999,0.0380254753,0.9138891219999999,0.31903661000000005,0.28151997300000003,,214.63636363636363,1,L25_NIRS-2019-09-09_004_trial01.txt,49.0
6,21.696,-1.13610781,-2.1316063200000004,-1.25440154,-0.919244368,-1.0550908300000001,-0.75620262,-0.0433936687,-0.0829537902,0.044453465899999996,0.9047063880000001,0.324076627,0.281152354,,214.63636363636363,1,L25_NIRS-2019-09-09_004_trial01.txt,49.0
7,22.976,-1.0845513199999999,-2.15557979,-1.2405592300000001,-1.001953496,-1.04840856,-0.7239481320000001,-0.0255666962,-0.08329401539999999,0.04814631570000001,0.8883841950000001,0.32627669600000003,0.278757845,,214.63636363636363,1,L25_NIRS-2019-09-09_004_trial01.txt,49.0
8,24.256,-1.0365462,-2.1177816999999997,-1.25462159,-0.9839146440000001,-1.002345796,-0.673244458,-0.019957226400000003,-0.0918434632,0.040675473,0.858195025,0.32112769599999996,0.27295449,,214.63636363636363,1,L25_NIRS-2019-09-09_004_trial01.txt,49.0
9,25.536,-1.0041796580000002,-2.0418322499999997,-1.3050096100000002,-0.910053905,-0.937714143,-0.642251671,-0.024442879999999997,-0.10622605399999999,0.0337724071,0.8248967259999999,0.308985506,0.267188617,,214.63636363636363,1,L25_NIRS-2019-09-09_004_trial01.txt,49.0
10,26.816000000000003,-0.985437725,-2.00165113,-1.3434351699999998,-0.8326579590000002,-0.8847176210000001,-0.647159112,-0.0266657781,-0.122191698,0.035853631000000004,0.8062937670000002,0.29345482399999995,0.259566528,,214.63636363636363,1,L25_NIRS-2019-09-09_004_trial01.txt,49.0
11,28.096000000000004,-0.9590786699999999,-1.99103605,-1.3374221099999999,-0.8093510070000001,-0.856153707,-0.652406579,-0.0215317432,-0.13000973600000001,0.0355760704,0.788331742,0.275875738,0.25070452000000004,,214.63636363636363,1,L25_NIRS-2019-09-09_004_trial01.txt,49.0
12,29.375999999999998,-0.9083407389999998,-1.9714436800000001,-1.30929459,-0.8248154079999999,-0.826578224,-0.629423164,0.0006610952500000003,-0.121985766,0.0358598366,0.7673693539999998,0.25850815800000004,0.24704134,,214.63636363636363,1,L25_NIRS-2019-09-09_004_trial01.txt,49.0
13,30.655999999999995,-0.84441991,-1.8732884799999998,-1.27289531,-0.7739930370000001,-0.763280171,-0.5557745,0.030670797599999994,-0.1048164847,0.0328724097,0.744476889,0.23875643900000001,0.24534472400000001,,214.63636363636363,1,L25_NIRS-2019-09-09_004_trial01.txt,49.0
14,31.935999999999996,-0.763188962,-1.6920151,-1.24469464,-0.6291090819999999,-0.6666780670000001,-0.460819534,0.05626782869999999,-0.092931529,0.0289426687,0.7059567600000001,0.214099019,0.23924054899999997,,214.63636363636363,1,L25_NIRS-2019-09-09_004_trial01.txt,49.0
15,33.215999999999994,-0.691059465,-1.52357319,-1.2434436899999999,-0.469869317,-0.593360458,-0.422348721,0.06612538379999999,-0.09039540640000002,0.0235054524,0.6569351920000001,0.182866855,0.227300412,,214.63636363636363,1,L25_NIRS-2019-09-09_004_trial01.txt,49.0
16,34.495999999999995,-0.633820366,-1.4070239599999999,-1.24640773,-0.353573784,-0.56529701,-0.433625142,0.06980185729999999,-0.0949605479,0.026112041399999997,0.6173145729999999,0.154235134,0.214587721,,214.63636363636363,1,L25_NIRS-2019-09-09_004_trial01.txt,49.0
17,35.775999999999996,-0.618106152,-1.3829807099999998,-1.2194293999999997,-0.2597102560000001,-0.580992056,-0.483222252,0.0715668875,-0.1032189957,0.0414647706,0.606282669,0.133851051,0.19566881900000002,,214.63636363636363,1,L25_NIRS-2019-09-09_004_trial01.txt,49.0
18,37.056,-0.626161382,-1.4064787,-1.15287387,-0.16488341199999998,-0.584836666,-0.5070871220000001,0.07259174369999999,-0.111351876,0.0550018923,0.610397473,0.12258142699999999,0.17464589299999997,,214.63636363636363,1,L25_NIRS-2019-09-09_004_trial01.txt,49.0
19,38.336,-0.6215480809999999,-1.40542577,-1.0729094099999998,-0.072494315,-0.5470007250000001,-0.4832012,0.07638320900000001,-0.109891094,0.06523238860000001,0.618201543,0.11322214099999998,0.16010069100000002,,214.63636363636363,1,L25_NIRS-2019-09-09_004_trial01.txt,49.0
20,39.616,-0.5726896109999999,-1.3361454700000004,-0.9760861070000001,0.057674637900000006,-0.451879951,-0.4040903210000001,0.0737527194,-0.104129417,0.0628347262,0.641797331,0.11172205999999998,0.146174326,,214.63636363636363,1,L25_NIRS-2019-09-09_004_trial01.txt,49.0
21,40.896,-0.47686063900000003,-1.21797931,-0.8657158660000001,0.189047311,-0.33801685800000003,-0.29908868899999996,0.056934048,-0.10474781800000002,0.052128716,0.660808532,0.10801242070000001,0.129833753,,214.63636363636363,1,L25_NIRS-2019-09-09_004_trial01.txt,49.0
22,42.176,-0.38149488600000003,-1.064801422,-0.7807538270000001,0.261021995,-0.27080982299999995,-0.20999009700000001,0.0368312199,-0.09262089150000001,0.0405485271,0.6615657180000001,0.0862110269,0.128256525,,214.63636363636363,1,L25_NIRS-2019-09-09_004_trial01.txt,49.0
23,43.456,-0.339577077,-0.9342704740000001,-0.744379403,0.28463904799999995,-0.263364844,-0.16440408099999998,0.026007542099999996,-0.07282611609999999,0.0333189279,0.6535796620000001,0.0641802444,0.140901586,,214.63636363636363,1,L25_NIRS-2019-09-09_004_trial01.txt,49.0
24,44.73599999999999,-0.41596467800000003,-0.936645819,-0.793997058,0.281473693,-0.307505076,-0.22176223899999997,0.022652170099999997,-0.060403197799999996,0.0362729669,0.6360533129999999,0.04755794470000001,0.14876604799999998,,214.63636363636363,1,L25_NIRS-2019-09-09_004_trial01.txt,49.0
25,46.016000000000005,-0.5787597489999998,-1.06055234,-0.8850017400000001,0.29254462600000003,-0.34562069900000003,-0.32576381200000004,0.019932781899999998,-0.0629898146,0.04554351969999999,0.616233966,0.0404684311,0.151327841,,214.63636363636363,1,L25_NIRS-2019-09-09_004_trial01.txt,49.0
26,47.296,-0.7405041640000001,-1.25759848,-0.9711074,0.28879305800000005,-0.359008763,-0.46318209499999996,0.033654848800000005,-0.0691409238,0.06116860319999999,0.5912961880000001,0.0386484675,0.14341845299999997,,214.63636363636363,1,L25_NIRS-2019-09-09_004_trial01.txt,49.0
27,48.576,-0.8307164870000001,-1.44624638,-1.0358926999999998,0.27202985900000004,-0.331040943,-0.5731892430000001,0.053010290800000005,-0.0793513229,0.060849818099999994,0.57814067,0.047909746399999995,0.124034495,,214.63636363636363,1,L25_NIRS-2019-09-09_004_trial01.txt,49.0
28,49.855999999999995,-0.821372731,-1.50115414,-1.0283095080000002,0.305924975,-0.23483403799999997,-0.559807658,0.06501782,-0.08194617109999999,0.0497731689,0.57536358,0.06137410249999999,0.11198114700000002,,214.63636363636363,1,L25_NIRS-2019-09-09_004_trial01.txt,49.0
29,51.13600000000001,-0.708778439,-1.33865898,-0.9404274789999999,0.44488906300000003,-0.061320166129999985,-0.37984186200000003,0.07457434939999999,-0.0651071207,0.034999863400000004,0.577183254,0.06046108139999999,0.121836927,,214.63636363636363,1,L25_NIRS-2019-09-09_004_trial01.txt,49.0
30,52.416,-0.577082583,-1.1040610999999998,-0.820710448,0.657344942,0.1226861175,-0.1380895387,0.0744659461,-0.05248018,0.022039268499999997,0.5861103260000001,0.05504993370000001,0.140198866,,214.63636363636363,1,L25_NIRS-2019-09-09_004_trial01.txt,49.0
31,53.696000000000005,-0.5102969580000001,-0.9412110600000002,-0.734653656,0.85223677,0.25077255200000004,0.04442028747,0.05573687000000001,-0.051756279599999996,0.01212814701,0.5976467810000001,0.04718710229999999,0.15904810399999997,,214.63636363636363,1,L25_NIRS-2019-09-09_004_trial01.txt,49.0
32,54.976,-0.5107158869999999,-0.8834113590000001,-0.667733863,1.023496734,0.33029624799999996,0.145568083,0.024149440379999998,-0.057980313400000004,0.00845794044,0.6212200349999999,0.04334395539999999,0.17935915,,214.63636363636363,1,L25_NIRS-2019-09-09_004_trial01.txt,49.0
33,56.25600000000001,-0.503139507,-0.831574053,-0.5811778049999999,1.1912676899999999,0.413954561,0.21282756899999997,0.0020359075493,-0.05448928199999999,0.0172313484,0.662392484,0.053661782000000005,0.203246997,,214.63636363636363,1,L25_NIRS-2019-09-09_004_trial01.txt,49.0
34,57.536,-0.44097794399999996,-0.717729012,-0.47495369499999995,1.35961556,0.5265336389999999,0.294994578,-0.0066180113100000005,-0.0515264921,0.027034699500000002,0.710626779,0.0796204543,0.221446948,,214.63636363636363,1,L25_NIRS-2019-09-09_004_trial01.txt,49.0
35,58.81600000000001,-0.338571305,-0.447393396,-0.30088309700000004,1.59641675,0.690130395,0.487171109,-0.0182480893,-0.0286872959,0.03811965429999999,0.7697411780000001,0.1171729712,0.249457554,,214.63636363636363,1,L25_NIRS-2019-09-09_004_trial01.txt,49.0
36,60.096000000000004,-0.25115702000000006,-0.20021424300000001,-0.163228785,1.8032630400000003,0.852118412,0.684243161,-0.026369785,-0.015257648799999999,0.0437521425,0.810707026,0.150315228,0.27747024800000003,,214.63636363636363,1,L25_NIRS-2019-09-09_004_trial01.txt,49.0
37,61.37599999999999,-0.26005387199999996,-0.171259098,-0.216683913,1.80130244,0.8835002240000002,0.7008259279999999,-0.01720578356,-0.0186876857,0.0441637493,0.806988377,0.16575382899999996,0.30556743899999994,,214.63636363636363,1,L25_NIRS-2019-09-09_004_trial01.txt,49.0
38,62.592,-0.3632803355555555,-0.31637362,-0.40337249333333336,1.6674845444444444,0.7838590677777778,0.5472024077777777,0.005542995374444444,-0.01643354,0.055389641333333337,0.7887140655555556,0.16588333000000002,0.33383559,,214.63636363636363,1,L25_NIRS-2019-09-09_004_trial01.txt,49.0
