,time,S3_D4_HbO,S3_D3_HbO,S2_D3_HbO,S2_D2_HbO,S1_D2_HbO,S1_D1_HbO,S3_D4_HbR,S3_D3_HbR,S2_D3_HbR,S2_D2_HbR,S1_D2_HbR,S1_D1_HbR,Var14,score,labelnum,filename,total_time
0,355.264,-0.849659433,-0.33676554400000003,-0.236799064,-1.64176595,-0.6703233189999999,-0.619054257,0.1578173,0.12416698500000001,0.0649830194,-0.200451481,0.0797106296,0.224297512,,80.93939393939394,0,L26_NIRS-2019-09-05_005_trial02.txt,213.0
1,356.544,-0.8866474209999999,-0.36656738200000005,-0.34349979399999997,-1.7771116,-0.7170626600000001,-0.6867189760000001,0.09048626450000001,0.1004537046,0.044530562600000004,-0.226900072,0.058854035900000004,0.19017687300000002,,80.93939393939394,0,L26_NIRS-2019-09-05_005_trial02.txt,213.0
2,357.824,-0.8745700359999999,-0.38610724900000004,-0.373679369,-1.80380634,-0.6853513139999999,-0.651925761,0.046612180200000006,0.109163059,0.0424740177,-0.22697101000000003,0.0564296715,0.172794723,,80.93939393939394,0,L26_NIRS-2019-09-05_005_trial02.txt,213.0
3,359.1039999999999,-0.8308555969999999,-0.37194520900000005,-0.31620037800000006,-1.73790912,-0.611801592,-0.5672949399999999,0.0314059874,0.13008285199999997,0.0593394344,-0.20985433699999997,0.0658846281,0.169944565,,80.93939393939394,0,L26_NIRS-2019-09-05_005_trial02.txt,213.0
4,360.384,-0.719622476,-0.34880034800000004,-0.20766807299999995,-1.64011128,-0.5407567849999999,-0.46902803299999996,0.06342529,0.145467819,0.0911556607,-0.18703397700000002,0.07980717069999999,0.178404462,,80.93939393939394,0,L26_NIRS-2019-09-05_005_trial02.txt,213.0
5,361.66400000000004,-0.603109917,-0.33130152700000004,-0.12471524599999999,-1.5757784300000002,-0.51994802,-0.40150161300000003,0.11608838129999999,0.142040997,0.11771949799999999,-0.178541426,0.0867446352,0.19517162600000001,,80.93939393939394,0,L26_NIRS-2019-09-05_005_trial02.txt,213.0
6,362.94399999999996,-0.518889979,-0.32113384,-0.110313823,-1.56837964,-0.541644303,-0.3860771069999999,0.154327079,0.119901448,0.125781655,-0.18791516500000002,0.08055801750000001,0.201255207,,80.93939393939394,0,L26_NIRS-2019-09-05_005_trial02.txt,213.0
7,364.22400000000005,-0.451538765,-0.331048016,-0.1602255,-1.60837032,-0.5754989160000001,-0.391529092,0.18476410199999999,0.0936640456,0.11791364100000001,-0.20243631899999998,0.0697003472,0.205419293,,80.93939393939394,0,L26_NIRS-2019-09-05_005_trial02.txt,213.0
8,365.504,-0.446786112,-0.367248122,-0.24108151600000002,-1.65393282,-0.592201208,-0.403710359,0.19914548,0.0926824654,0.104934245,-0.21529843999999998,0.06330067850000001,0.213820956,,80.93939393939394,0,L26_NIRS-2019-09-05_005_trial02.txt,213.0
9,366.784,-0.49912549100000003,-0.39837652800000006,-0.28342382699999996,-1.6497327900000003,-0.573622591,-0.39908110399999996,0.20638074199999998,0.12144232899999999,0.10221905,-0.21756852200000001,0.0663630741,0.22612203700000003,,80.93939393939394,0,L26_NIRS-2019-09-05_005_trial02.txt,213.0
10,368.06399999999996,-0.572820388,-0.39203451300000003,-0.25864007099999997,-1.5836295999999999,-0.53097501,-0.387669429,0.20816745599999997,0.151954087,0.10420959,-0.20885868600000004,0.0733152314,0.237300574,,80.93939393939394,0,L26_NIRS-2019-09-05_005_trial02.txt,213.0
11,369.344,-0.640557197,-0.36893657800000007,-0.20477564099999998,-1.5012081000000002,-0.4962452550000001,-0.3965422820000001,0.20652092400000002,0.16630595,0.09890550689999998,-0.201028392,0.07503476330000002,0.235897429,,80.93939393939394,0,L26_NIRS-2019-09-05_005_trial02.txt,213.0
12,370.6239999999999,-0.701007297,-0.34555095699999994,-0.177201047,-1.4542472400000002,-0.484529593,-0.436241377,0.193045124,0.158044133,0.081592189,-0.20578701899999996,0.0653268025,0.215888964,,80.93939393939394,0,L26_NIRS-2019-09-05_005_trial02.txt,213.0
13,371.904,-0.758619508,-0.33366058800000004,-0.20741465999999997,-1.4453753300000003,-0.47618354500000004,-0.4780434290000001,0.160578558,0.139927721,0.052433465199999994,-0.21628083,0.049740588399999994,0.18011194800000002,,80.93939393939394,0,L26_NIRS-2019-09-05_005_trial02.txt,213.0
14,373.184,-0.837485136,-0.35249501699999997,-0.297408611,-1.46825188,-0.470888176,-0.528447142,0.12326623200000002,0.13278853400000004,0.0265975387,-0.230304468,0.0391170425,0.145037648,,80.93939393939394,0,L26_NIRS-2019-09-05_005_trial02.txt,213.0
15,374.46399999999994,-0.9173501689999999,-0.38407189299999994,-0.384791146,-1.4861223300000002,-0.4648519950000001,-0.577266814,0.1004541892,0.147192042,0.023522354500000002,-0.24138807,0.03868810770000001,0.11935552199999999,,80.93939393939394,0,L26_NIRS-2019-09-05_005_trial02.txt,213.0
16,375.744,-0.968547526,-0.400695654,-0.416497795,-1.47026706,-0.46042087900000006,-0.617055159,0.10568794510000001,0.17210691900000002,0.04877816859999999,-0.23798983599999998,0.044110017999999994,0.10793255799999998,,80.93939393939394,0,L26_NIRS-2019-09-05_005_trial02.txt,213.0
17,377.024,-0.959431082,-0.380912083,-0.374004932,-1.41708703,-0.45797849300000004,-0.6234059069999999,0.126439688,0.18431000800000003,0.0851230017,-0.222460182,0.048743913800000004,0.11064523200000001,,80.93939393939394,0,L26_NIRS-2019-09-05_005_trial02.txt,213.0
18,378.30400000000003,-0.8755503379999998,-0.34169812899999996,-0.276146249,-1.34645159,-0.466356974,-0.5854636510000001,0.14950518499999998,0.174779347,0.11553181500000001,-0.20528051200000003,0.045952383900000005,0.121086494,,80.93939393939394,0,L26_NIRS-2019-09-05_005_trial02.txt,213.0
19,379.58399999999995,-0.7433707559999998,-0.291426968,-0.176795562,-1.2797141699999999,-0.47203102599999996,-0.515899844,0.14964520199999998,0.149664668,0.127695493,-0.19572153399999997,0.03445502229999999,0.11999113599999997,,80.93939393939394,0,L26_NIRS-2019-09-05_005_trial02.txt,213.0
20,380.86400000000003,-0.585924101,-0.24334546599999998,-0.12331393300000001,-1.2464458900000002,-0.459877663,-0.44634010800000007,0.135075901,0.120599338,0.11749251599999999,-0.19263833600000002,0.0229569889,0.10482551550000001,,80.93939393939394,0,L26_NIRS-2019-09-05_005_trial02.txt,213.0
21,382.14399999999995,-0.48411966700000003,-0.22683989899999996,-0.152690052,-1.26447141,-0.44235053100000005,-0.42362956600000007,0.11137862009999999,0.1003955943,0.09109472360000001,-0.20023498499999998,0.0155230377,0.0806172726,,80.93939393939394,0,L26_NIRS-2019-09-05_005_trial02.txt,213.0
22,383.424,-0.4880193900000001,-0.23774455000000003,-0.23503757200000003,-1.3119729299999998,-0.42920136100000006,-0.45905030800000013,0.0834017853,0.093371448,0.0628760809,-0.21999657299999997,0.010618965010000002,0.0541195388,,80.93939393939394,0,L26_NIRS-2019-09-05_005_trial02.txt,213.0
23,384.704,-0.5540111750000001,-0.256512866,-0.312422348,-1.3490016800000002,-0.423756849,-0.5143845729999998,0.0657578506,0.0924837845,0.0448869819,-0.23453421000000002,0.005200752259999999,0.037433502199999996,,80.93939393939394,0,L26_NIRS-2019-09-05_005_trial02.txt,213.0
24,385.984,-0.6041528439999999,-0.26447277999999996,-0.32931414300000006,-1.34408575,-0.42393808999999993,-0.546527687,0.0663608628,0.09013065320000001,0.042880257500000005,-0.24380485300000002,-0.00021515898820000006,0.0336250508,,80.93939393939394,0,L26_NIRS-2019-09-05_005_trial02.txt,213.0
25,387.264,-0.598951643,-0.253799741,-0.266551196,-1.29640173,-0.423493598,-0.5222789779999999,0.0781838752,0.0871308469,0.054792631,-0.23838708399999997,-0.0027020493100000003,0.0394516633,,80.93939393939394,0,L26_NIRS-2019-09-05_005_trial02.txt,213.0
26,388.544,-0.5403965239999999,-0.224000413,-0.151631186,-1.2260607700000001,-0.41948308900000014,-0.46945315499999996,0.09233116320000001,0.0823690201,0.0728996999,-0.22703008299999997,-0.0007609182603900003,0.043440673,,80.93939393939394,0,L26_NIRS-2019-09-05_005_trial02.txt,213.0
27,389.824,-0.4541892260000001,-0.179352907,-0.04082000365,-1.1835610699999999,-0.410862397,-0.4266641320000001,0.10265567069999999,0.07179467069999998,0.08645980830000001,-0.214576725,0.0029702164699999998,0.0338745328,,80.93939393939394,0,L26_NIRS-2019-09-05_005_trial02.txt,213.0
28,391.1039999999999,-0.407988893,-0.15743506299999996,-0.004929595817,-1.21068185,-0.420009011,-0.43199506000000004,0.09958800519999998,0.05636792110000001,0.088305716,-0.210383122,0.0018446598750000002,0.009625009490000003,,80.93939393939394,0,L26_NIRS-2019-09-05_005_trial02.txt,213.0
29,392.384,-0.43609949,-0.14760173199999999,-0.050538683699999996,-1.27771572,-0.430968417,-0.46206128400000007,0.06730538870000001,0.0396161843,0.0745581153,-0.21927735100000004,-0.007122338980000001,-0.02067918131,,80.93939393939394,0,L26_NIRS-2019-09-05_005_trial02.txt,213.0
30,393.66400000000004,-0.483726064,-0.13989778299999997,-0.1279531076,-1.3286267300000003,-0.440789573,-0.4802462769999999,0.029258529100000003,0.0214321401,0.0532090066,-0.23179515700000003,-0.024065522699999998,-0.046432178799999994,,80.93939393939394,0,L26_NIRS-2019-09-05_005_trial02.txt,213.0
31,394.94399999999996,-0.48263654899999997,-0.11500937600000001,-0.18122889900000003,-1.33934308,-0.43765952500000005,-0.462163038,0.01058831086,0.0042392589472,0.0348408624,-0.24084251799999995,-0.04155711399999999,-0.06480464050000001,,80.93939393939394,0,L26_NIRS-2019-09-05_005_trial02.txt,213.0
32,396.22400000000005,-0.45409817499999994,-0.08249408,-0.194298506,-1.3173345800000003,-0.42397832300000005,-0.412554085,0.01015266271,-0.008217820689999999,0.020441024199999998,-0.235465042,-0.0527891816,-0.0687041603,,80.93939393939394,0,L26_NIRS-2019-09-05_005_trial02.txt,213.0
33,397.504,-0.404130014,-0.0446495364,-0.154872061,-1.2645742800000002,-0.398814783,-0.359719075,0.030522799,-0.012103329999999999,0.013020182580000001,-0.22738208499999998,-0.0537236154,-0.0652962636,,80.93939393939394,0,L26_NIRS-2019-09-05_005_trial02.txt,213.0
34,398.784,-0.366643616,-0.011576845007000002,-0.08600446119999999,-1.19838366,-0.381722101,-0.34292576799999996,0.048894853499999995,-0.010791401840000003,0.00338192307,-0.22044478000000006,-0.053473703299999994,-0.0717614399,,80.93939393939394,0,L26_NIRS-2019-09-05_005_trial02.txt,213.0
35,400.06399999999996,-0.265013868,0.005419798371,-0.021234347049999998,-1.14320576,-0.355031034,-0.21078016000000002,0.0967171171,0.002721064717,0.009681660540000001,-0.214174371,-0.0319753671,-0.011004999960000003,,80.93939393939394,0,L26_NIRS-2019-09-05_005_trial02.txt,213.0
36,401.344,-0.07642575632999998,0.0181195587,0.02027836067,-1.11894056,-0.30646602799999995,0.04124149838,0.175083781,0.0226821016,0.0369509772,-0.220098138,0.011799155799999999,0.1163678199,,80.93939393939394,0,L26_NIRS-2019-09-05_005_trial02.txt,213.0
37,402.6239999999999,0.12634122060000003,0.007601368415000001,0.01784179558,-1.1402407700000001,-0.276413207,0.30421216100000004,0.260762296,0.0305266868,0.06982016249999999,-0.230107451,0.0562545113,0.25760681500000004,,80.93939393939394,0,L26_NIRS-2019-09-05_005_trial02.txt,213.0
38,403.904,0.355277498,-0.008660101853,0.007947009,-1.1725310199999999,-0.25617013,0.537430509,0.35993371900000004,0.026309570900000002,0.1075528554,-0.23920710499999998,0.0937646263,0.38575096799999997,,80.93939393939394,0,L26_NIRS-2019-09-05_005_trial02.txt,213.0
39,405.184,0.428931623,-0.030653701300000002,-0.00958840457,-1.2008712199999998,-0.24686254599999996,0.674478811,0.396579612,0.0182340121,0.130610709,-0.23971755999999997,0.121339065,0.474253095,,80.93939393939394,0,L26_NIRS-2019-09-05_005_trial02.txt,213.0
40,406.46399999999994,0.319622895,-0.05286524930000001,-0.031223732200000003,-1.1941763600000002,-0.25285474499999994,0.637920461,0.36014499499999997,0.008938038640000001,0.12262853099999997,-0.232819276,0.129515706,0.4859711,,80.93939393939394,0,L26_NIRS-2019-09-05_005_trial02.txt,213.0
41,407.744,0.10298897743999998,-0.0817807783,-0.06003417259999999,-1.1563022699999999,-0.290598347,0.442999149,0.28141057599999997,-3.779972000000063e-06,0.0854048503,-0.21980220999999997,0.112335928,0.426732953,,80.93939393939394,0,L26_NIRS-2019-09-05_005_trial02.txt,213.0
42,409.024,-0.0740703858,-0.12662453999999998,-0.1021205436,-1.1183650100000002,-0.333562218,0.299475268,0.23295376599999998,0.003913902152,0.047651570799999994,-0.20898562600000004,0.0961004597,0.395120768,,80.93939393939394,0,L26_NIRS-2019-09-05_005_trial02.txt,213.0
43,410.304,-0.201079235,-0.179528831,-0.18021185499999998,-1.13088057,-0.373539866,0.201283615,0.222109547,0.022018892800000002,0.02138641964,-0.20923898400000002,0.0877573596,0.39009429500000004,,80.93939393939394,0,L26_NIRS-2019-09-05_005_trial02.txt,213.0
44,411.584,-0.318665692,-0.24915190999999998,-0.31135121099999996,-1.2017938999999997,-0.44229568699999994,0.0841522539,0.235175886,0.03918936490000001,-0.0030294309890000004,-0.21274083399999996,0.07725077030000001,0.381419689,,80.93939393939394,0,L26_NIRS-2019-09-05_005_trial02.txt,213.0
45,412.86400000000003,-0.36542229800000003,-0.305320482,-0.4167271899999999,-1.28808315,-0.51311731,-0.01079447359,0.27842884999999995,0.051036733300000005,-0.005707247844,-0.213859269,0.07003560480000001,0.3747378840000001,,80.93939393939394,0,L26_NIRS-2019-09-05_005_trial02.txt,213.0
46,414.14399999999995,-0.432353184,-0.33241099500000004,-0.48373424600000003,-1.35759024,-0.562652532,-0.0805549384,0.292888991,0.0669466685,0.00418403158,-0.206533882,0.07267772469999999,0.370916782,,80.93939393939394,0,L26_NIRS-2019-09-05_005_trial02.txt,213.0
47,415.424,-0.492552116,-0.31197105500000005,-0.49472263399999994,-1.37488359,-0.5740340310000001,-0.137480137,0.268126015,0.0832592102,0.015607678619999999,-0.18361366299999998,0.0816856428,0.360545141,,80.93939393939394,0,L26_NIRS-2019-09-05_005_trial02.txt,213.0
48,416.704,-0.459083907,-0.26129443599999996,-0.44463185699999996,-1.34136079,-0.558463388,-0.15910471399999998,0.247766406,0.09663928729999999,0.0348955991,-0.152368242,0.0932452901,0.36417616,,80.93939393939394,0,L26_NIRS-2019-09-05_005_trial02.txt,213.0
49,417.98400000000004,-0.312669349,-0.22202677399999998,-0.348588962,-1.28681145,-0.534759978,-0.13659142300000002,0.26448128699999995,0.10582013900000001,0.0629823652,-0.12553688799999999,0.10624589879999999,0.39441447400000007,,80.93939393939394,0,L26_NIRS-2019-09-05_005_trial02.txt,213.0
50,419.26399999999995,-0.16830537399999998,-0.22704769800000002,-0.273348812,-1.2453735600000002,-0.5263825010000001,-0.136455675,0.29234190600000004,0.12165284700000001,0.0860758908,-0.10899054999999999,0.120954135,0.4377043319999999,,80.93939393939394,0,L26_NIRS-2019-09-05_005_trial02.txt,213.0
51,420.54400000000004,-0.0827738179,-0.282030636,-0.250695314,-1.21664806,-0.5374220319999999,-0.168917771,0.32852237600000006,0.14901656200000002,0.09777796520000001,-0.103650196,0.137788168,0.4826724930000001,,80.93939393939394,0,L26_NIRS-2019-09-05_005_trial02.txt,213.0
52,421.82399999999996,-0.0933265589,-0.37636369599999997,-0.271141086,-1.21669061,-0.564617964,-0.23315596300000002,0.3662841660000001,0.18820208500000002,0.106650193,-0.10995533500000002,0.15358011899999996,0.5198954299999999,,80.93939393939394,0,L26_NIRS-2019-09-05_005_trial02.txt,213.0
53,423.104,-0.16912299400000003,-0.470778662,-0.323591568,-1.2361576300000001,-0.590175891,-0.28945447199999996,0.40395150500000004,0.234067568,0.11482718800000002,-0.116314022,0.170055812,0.553729773,,80.93939393939394,0,L26_NIRS-2019-09-05_005_trial02.txt,213.0
54,424.384,-0.230106105,-0.49654229800000005,-0.360318727,-1.2418160199999997,-0.5766479480000001,-0.27683441500000006,0.42757204600000004,0.26889018800000003,0.126570773,-0.12139437199999999,0.18755228699999998,0.585289917,,80.93939393939394,0,L26_NIRS-2019-09-05_005_trial02.txt,213.0
55,425.66400000000004,-0.24646941,-0.443675988,-0.34945896800000004,-1.22012128,-0.533077237,-0.22605642699999998,0.430275768,0.277368032,0.13702831399999998,-0.11572103400000003,0.19846351,0.6064614740000001,,80.93939393939394,0,L26_NIRS-2019-09-05_005_trial02.txt,213.0
56,426.94399999999996,-0.18076057100000004,-0.342340862,-0.276107474,-1.16958081,-0.47590071199999995,-0.15999028499999998,0.43860780700000007,0.255343851,0.149585759,-0.10516280770000001,0.19875987499999997,0.6160356400000001,,80.93939393939394,0,L26_NIRS-2019-09-05_005_trial02.txt,213.0
57,428.224,-0.10114079040000001,-0.24362300500000003,-0.18558492899999998,-1.12736897,-0.43397939099999994,-0.11738136099999999,0.439069238,0.21630501200000002,0.15781815200000002,-0.09538655840000002,0.191289184,0.613062914,,80.93939393939394,0,L26_NIRS-2019-09-05_005_trial02.txt,213.0
58,429.504,-0.1004928174,-0.184874421,-0.154170475,-1.1008768199999999,-0.41153235099999996,-0.11864975900000001,0.40751162900000004,0.18048455300000002,0.142359522,-0.0954686427,0.179874679,0.5966037780000001,,80.93939393939394,0,L26_NIRS-2019-09-05_005_trial02.txt,213.0
59,430.78399999999993,-0.17422600100000002,-0.20397962600000002,-0.196918272,-1.1115910599999999,-0.42431855,-0.184357785,0.36685356999999996,0.167510981,0.117829188,-0.1054473936,0.168641909,0.5695781980000001,,80.93939393939394,0,L26_NIRS-2019-09-05_005_trial02.txt,213.0
60,432.064,-0.260459858,-0.275086563,-0.26995458299999997,-1.14501935,-0.45053093899999996,-0.259947555,0.33871406,0.181557591,0.10296852599999999,-0.11241476300000001,0.16659813799999998,0.551804901,,80.93939393939394,0,L26_NIRS-2019-09-05_005_trial02.txt,213.0
61,433.34399999999994,-0.321239481,-0.34658209700000003,-0.335045447,-1.1671701099999998,-0.46874522899999993,-0.29328089,0.331480463,0.208691065,0.10533535499999999,-0.114279303,0.174563108,0.5586050140000001,,80.93939393939394,0,L26_NIRS-2019-09-05_005_trial02.txt,213.0
62,434.62399999999997,-0.332620359,-0.380133698,-0.341645515,-1.14464061,-0.468402035,-0.294806702,0.34462508199999997,0.23184462099999997,0.12078303100000001,-0.10862698100000001,0.181130559,0.572249058,,80.93939393939394,0,L26_NIRS-2019-09-05_005_trial02.txt,213.0
63,435.904,-0.29857719200000005,-0.378026459,-0.281560628,-1.0936420999999998,-0.458093384,-0.27761764299999997,0.380902654,0.24558771799999998,0.14716865699999998,-0.09603404609999998,0.18002357200000002,0.584556036,,80.93939393939394,0,L26_NIRS-2019-09-05_005_trial02.txt,213.0
64,437.184,-0.24278542,-0.3449612110000001,-0.175502598,-1.03637236,-0.438696864,-0.241190446,0.42230796800000003,0.247561579,0.17574974999999998,-0.0831093771,0.172282031,0.5865035630000001,,80.93939393939394,0,L26_NIRS-2019-09-05_005_trial02.txt,213.0
65,438.46399999999994,-0.24078450199999998,-0.31888431199999995,-0.10852380310000001,-1.00373007,-0.430086761,-0.22982287399999998,0.433411184,0.24246249200000003,0.181302818,-0.078083803,0.161638797,0.575252072,,80.93939393939394,0,L26_NIRS-2019-09-05_005_trial02.txt,213.0
66,439.74399999999997,-0.24647555,-0.32851107599999996,-0.09087954940000001,-1.01292921,-0.43479214399999994,-0.245498109,0.43175026,0.23916089999999998,0.17580010999999998,-0.0844836789,0.15359133500000002,0.5611376889999999,,80.93939393939394,0,L26_NIRS-2019-09-05_005_trial02.txt,213.0
67,441.02400000000006,-0.2605516090000001,-0.37017120500000006,-0.11505815349999997,-1.0677480799999999,-0.44518569799999996,-0.267786962,0.42202617500000006,0.24252777499999997,0.16671481900000001,-0.09230946539999998,0.14982969399999999,0.549802034,,80.93939393939394,0,L26_NIRS-2019-09-05_005_trial02.txt,213.0
68,442.304,-0.258920211,-0.406249299,-0.157657992,-1.1207088799999998,-0.44769651199999994,-0.267044955,0.418563802,0.24914546200000004,0.15784955700000003,-0.09881171750000001,0.150164295,0.546218929,,80.93939393939394,0,L26_NIRS-2019-09-05_005_trial02.txt,213.0
69,443.584,-0.20640971700000002,-0.400814427,-0.17218039400000001,-1.11551628,-0.41924506500000003,-0.21322879799999997,0.43080423300000004,0.25569840800000004,0.156469147,-0.10155143900000001,0.153935502,0.542867218,,80.93939393939394,0,L26_NIRS-2019-09-05_005_trial02.txt,213.0
70,444.86400000000003,-0.12250236070000002,-0.36086733400000004,-0.146548462,-1.0593065799999999,-0.369217609,-0.1332458562,0.45075328,0.26048616199999997,0.162650843,-0.1000771507,0.158377962,0.53975978,,80.93939393939394,0,L26_NIRS-2019-09-05_005_trial02.txt,213.0
71,446.14399999999995,-0.048526382500000007,-0.30570065900000004,-0.09602519869999998,-0.9829226299999998,-0.318032734,-0.054294687999999994,0.4671512,0.258613519,0.17301886100000002,-0.09960587929999999,0.161606365,0.532772136,,80.93939393939394,0,L26_NIRS-2019-09-05_005_trial02.txt,213.0
72,447.424,-0.0354842221,-0.27352650999999994,-0.06302250960000001,-0.9343352279999999,-0.294048554,-0.0321356805,0.46173534800000005,0.247889288,0.17697686999999998,-0.10787773500000002,0.160275732,0.521536034,,80.93939393939394,0,L26_NIRS-2019-09-05_005_trial02.txt,213.0
73,448.704,-0.06268050289999999,-0.275970446,-0.047485591199999996,-0.9284545399999999,-0.292576172,-0.06853141,0.440598427,0.23217819300000003,0.175409632,-0.12321705899999999,0.15240733100000003,0.5082715059999999,,80.93939393939394,0,L26_NIRS-2019-09-05_005_trial02.txt,213.0
74,449.98400000000004,-0.125767189,-0.30972812599999994,-0.0702629224,-0.965221168,-0.31244693199999996,-0.145226077,0.412172553,0.221651883,0.16517435,-0.14159529099999998,0.138830162,0.49337491299999997,,80.93939393939394,0,L26_NIRS-2019-09-05_005_trial02.txt,213.0
75,451.26399999999995,-0.20480635400000002,-0.31726101500000004,-0.11297836320000001,-1.005898747,-0.326699151,-0.226505099,0.364847084,0.214972027,0.144044885,-0.15391691,0.123973317,0.463633522,,80.93939393939394,0,L26_NIRS-2019-09-05_005_trial02.txt,213.0
76,452.54400000000004,-0.24473643100000003,-0.274482472,-0.135503001,-1.0133067700000002,-0.320685105,-0.29207740699999996,0.305808424,0.20398281499999998,0.119881445,-0.15537051,0.11028129200000003,0.417826596,,80.93939393939394,0,L26_NIRS-2019-09-05_005_trial02.txt,213.0
77,453.82399999999996,-0.23254566200000001,-0.195033706,-0.11450249700000001,-0.979908026,-0.28863481700000004,-0.32239192299999997,0.245006185,0.18633455100000001,0.0950205267,-0.148867625,0.09807255710000001,0.365813309,,80.93939393939394,0,L26_NIRS-2019-09-05_005_trial02.txt,213.0
78,455.104,-0.252753092,-0.133488589,-0.08937573299999998,-0.9368287470000001,-0.262749689,-0.35911267799999996,0.17980079899999998,0.166840497,0.06841163739999999,-0.146481439,0.088108728,0.31149704400000006,,80.93939393939394,0,L26_NIRS-2019-09-05_005_trial02.txt,213.0
79,456.384,-0.307184633,-0.12917045,-0.07946453919999999,-0.9157415629999999,-0.257037467,-0.407816376,0.135028493,0.152958175,0.04702450829999999,-0.15473536,0.0809974265,0.266658543,,80.93939393939394,0,L26_NIRS-2019-09-05_005_trial02.txt,213.0
80,457.66399999999993,-0.34173039699999996,-0.180055529,-0.0810782467,-0.921924398,-0.270829915,-0.45143932500000006,0.137236131,0.151790717,0.0393814588,-0.167542222,0.07654743750000001,0.23936599999999997,,80.93939393939394,0,L26_NIRS-2019-09-05_005_trial02.txt,213.0
81,458.9440000000001,-0.32867765399999993,-0.250983399,-0.0845648009,-0.9289726829999999,-0.294913069,-0.46422409900000006,0.19109103000000002,0.16719440600000002,0.0502525461,-0.184146935,0.0782489744,0.233199239,,80.93939393939394,0,L26_NIRS-2019-09-05_005_trial02.txt,213.0
82,460.22400000000005,-0.29053361499999997,-0.28300646799999996,-0.08471374489999998,-0.935485391,-0.3107738400000001,-0.447503513,0.25603634200000003,0.188242006,0.0686327816,-0.19059157,0.0841660203,0.231875037,,80.93939393939394,0,L26_NIRS-2019-09-05_005_trial02.txt,213.0
83,461.504,-0.22206063499999998,-0.26470681799999995,-0.0703588932,-0.9392568539999999,-0.31647276799999996,-0.414025541,0.304662993,0.19545468199999996,0.09001502,-0.18617340599999999,0.0873771455,0.22764736500000002,,80.93939393939394,0,L26_NIRS-2019-09-05_005_trial02.txt,213.0
84,462.78399999999993,-0.1294191934,-0.21008697799999995,-0.0375360562,-0.9184393310000001,-0.30376825100000004,-0.35189972299999994,0.322902617,0.18255542600000002,0.107979524,-0.17843808700000002,0.08613925880000001,0.21366322399999998,,80.93939393939394,0,L26_NIRS-2019-09-05_005_trial02.txt,213.0
85,464.064,-0.05552758590000001,-0.15617551799999999,-0.01154323633,-0.8943022409999999,-0.289197528,-0.286635843,0.30381398000000004,0.154503897,0.116387682,-0.167784294,0.0833206185,0.194198967,,80.93939393939394,0,L26_NIRS-2019-09-05_005_trial02.txt,213.0
86,465.34400000000005,-0.0032038279299999987,-0.11333715419999998,0.005406801291,-0.868969474,-0.270956194,-0.235748748,0.265454287,0.12150839499999999,0.11541555800000003,-0.16660090300000002,0.0791333457,0.172747027,,80.93939393939394,0,L26_NIRS-2019-09-05_005_trial02.txt,213.0
87,466.62399999999997,0.0250227445,-0.08363220819999999,0.009522022889999999,-0.8581897089999998,-0.262156342,-0.21532894700000002,0.224769738,0.08907310330000001,0.10367462949999999,-0.17062206300000002,0.07070454880000002,0.157600015,,80.93939393939394,0,L26_NIRS-2019-09-05_005_trial02.txt,213.0
88,467.9040000000001,0.041473823699999995,-0.0437148394,0.021458264400000003,-0.85118057,-0.25208110799999994,-0.21967591,0.19507232600000002,0.059357073700000006,0.083748747,-0.17990330599999999,0.0581413554,0.14769823200000004,,80.93939393939394,0,L26_NIRS-2019-09-05_005_trial02.txt,213.0
89,469.184,0.044331625599999994,0.002503341067,0.043957354,-0.852305791,-0.231676952,-0.239114315,0.16937861,0.0331148682,0.057701810000000006,-0.18706024499999999,0.043281211,0.139992934,,80.93939393939394,0,L26_NIRS-2019-09-05_005_trial02.txt,213.0
90,470.46399999999994,0.034129848000000004,0.031677957,0.05656376810000001,-0.848223881,-0.199601929,-0.26630093499999996,0.146335834,0.0178434034,0.0326300453,-0.19406420400000002,0.031022885600000005,0.128366866,,80.93939393939394,0,L26_NIRS-2019-09-05_005_trial02.txt,213.0
91,471.74399999999997,0.01676157265,0.0186185334751,0.0490303281,-0.825913231,-0.164547229,-0.283280488,0.13826430800000003,0.022939268999999998,0.0209957198,-0.20244249,0.025774054400000003,0.118574606,,80.93939393939394,0,L26_NIRS-2019-09-05_005_trial02.txt,213.0
92,473.02400000000006,0.0051658428300000005,-0.03420540805,0.027240010999999998,-0.802050457,-0.14270641499999998,-0.27869521,0.15068021099999998,0.04618745219999999,0.0256789333,-0.19938926699999998,0.0303233886,0.116149745,,80.93939393939394,0,L26_NIRS-2019-09-05_005_trial02.txt,213.0
93,474.3040000000001,0.002959585453,-0.09886702820000001,0.008484163041000001,-0.7791282070000001,-0.139823087,-0.267315353,0.17878755099999996,0.0781757648,0.044376453700000006,-0.200704313,0.0413881256,0.121730976,,80.93939393939394,0,L26_NIRS-2019-09-05_005_trial02.txt,213.0
94,475.58399999999995,-0.030159395500000002,-0.16210705600000003,-0.01271397956,-0.794575776,-0.173298665,-0.293241969,0.203473499,0.10472282830000001,0.06598975160000001,-0.20612418,0.05050896889999999,0.13041679099999998,,80.93939393939394,0,L26_NIRS-2019-09-05_005_trial02.txt,213.0
95,476.86400000000003,-0.09893959620000001,-0.20770908800000001,-0.0468070877,-0.867445601,-0.239584564,-0.36471621299999996,0.21311881900000001,0.112703908,0.077322181,-0.21933243,0.0508416652,0.134858094,,80.93939393939394,0,L26_NIRS-2019-09-05_005_trial02.txt,213.0
96,478.14399999999995,-0.16889756699999997,-0.23291202800000002,-0.093693655,-0.963703569,-0.303276115,-0.43086730200000006,0.20301952399999998,0.09673010149999998,0.075579482,-0.232583355,0.043934733399999995,0.135617962,,80.93939393939394,0,L26_NIRS-2019-09-05_005_trial02.txt,213.0
97,479.424,-0.188341857,-0.242249279,-0.14579798100000002,-1.01376474,-0.32301028,-0.42671287700000005,0.18625532699999997,0.0723543913,0.068257015,-0.23990019199999998,0.039583649,0.134215896,,80.93939393939394,0,L26_NIRS-2019-09-05_005_trial02.txt,213.0
98,480.704,-0.1331722344,-0.255503555,-0.158593147,-1.0075753749999998,-0.30417525100000004,-0.34523648400000007,0.20330250300000002,0.0544696368,0.0793034193,-0.23146153200000003,0.0426415037,0.14484084199999997,,80.93939393939394,0,L26_NIRS-2019-09-05_005_trial02.txt,213.0
99,481.98400000000004,-0.0463509975,-0.24546716200000002,-0.10017775789999998,-0.9343823889999999,-0.254793913,-0.22370719700000002,0.23855675699999995,0.0491256055,0.10491413840000001,-0.209940484,0.051516374200000006,0.15678498299999996,,80.93939393939394,0,L26_NIRS-2019-09-05_005_trial02.txt,213.0
100,483.26399999999995,0.00697823461,-0.21191009100000002,0.00980233468,-0.8410573569999998,-0.20939630900000003,-0.141537254,0.26471139,0.054913613400000005,0.131426589,-0.186026415,0.0580765216,0.159290629,,80.93939393939394,0,L26_NIRS-2019-09-05_005_trial02.txt,213.0
101,484.544,0.0422522807,-0.151885829,0.1564955216,-0.7599888650000001,-0.183344441,-0.12198463299999998,0.268871226,0.0617884818,0.150386887,-0.17049735100000002,0.05782513999999998,0.14507127800000003,,80.93939393939394,0,L26_NIRS-2019-09-05_005_trial02.txt,213.0
102,485.82399999999996,0.049855584,-0.08516344029999999,0.275430049,-0.7269980460000001,-0.193999747,-0.18272876500000002,0.23207389899999997,0.060415678900000006,0.14839276,-0.171505081,0.04859501889999999,0.11730790100000002,,80.93939393939394,0,L26_NIRS-2019-09-05_005_trial02.txt,213.0
103,487.104,0.042149464299999995,-0.0259051432,0.321850649,-0.744867663,-0.20808094700000002,-0.261889687,0.15498649799999997,0.0458141081,0.12250540800000001,-0.18560011199999998,0.0379022342,0.08608756729999999,,80.93939393939394,0,L26_NIRS-2019-09-05_005_trial02.txt,213.0
104,488.384,0.043359045400000004,-0.010003563870000001,0.267792135,-0.7905649290000001,-0.20805600200000002,-0.31480573,0.0778512509,0.0296739152,0.0842043756,-0.20496671700000002,0.0341164219,0.06720616609999999,,80.93939393939394,0,L26_NIRS-2019-09-05_005_trial02.txt,213.0
105,489.66399999999993,0.0725390437,-0.0341941921,0.170231852,-0.8330722639999999,-0.183665974,-0.316977539,0.0418618306,0.0219188673,0.0573719625,-0.222593249,0.03967279859999999,0.078537475,,80.93939393939394,0,L26_NIRS-2019-09-05_005_trial02.txt,213.0
106,490.9440000000001,0.095214027,-0.07241086700000002,0.0873320299,-0.852307787,-0.15254186099999997,-0.30825153599999994,0.056397737,0.0315352858,0.0517135518,-0.23544650900000003,0.04959353949999999,0.1092797891,,80.93939393939394,0,L26_NIRS-2019-09-05_005_trial02.txt,213.0
107,492.22400000000005,0.0790064348,-0.1020492633,0.05154370540000001,-0.8473383230000001,-0.134535422,-0.331011833,0.1000984001,0.0546511211,0.0614063346,-0.23951830000000002,0.056254170400000005,0.14052232799999997,,80.93939393939394,0,L26_NIRS-2019-09-05_005_trial02.txt,213.0
108,493.504,0.07793954479999998,-0.105809076,0.0901661535,-0.8112248150000001,-0.13202469500000003,-0.355895996,0.164843765,0.07697366529999998,0.08678200690000001,-0.241390112,0.057132501700000005,0.160689272,,80.93939393939394,0,L26_NIRS-2019-09-05_005_trial02.txt,213.0
109,494.78399999999993,0.022294394390000007,-0.101171602,0.135657494,-0.78372928,-0.158314185,-0.3807684780000001,0.19177087399999998,0.08555150949999998,0.10131662720000001,-0.240445481,0.0508828097,0.16890208699999998,,80.93939393939394,0,L26_NIRS-2019-09-05_005_trial02.txt,213.0
110,496.064,-0.07542502470000001,-0.10043950859999999,0.13614012299999997,-0.7831321950000001,-0.18984585899999998,-0.37692535799999993,0.16932064900000002,0.07528600879999998,0.0915274053,-0.245330644,0.04548858409999999,0.169755982,,80.93939393939394,0,L26_NIRS-2019-09-05_005_trial02.txt,213.0
111,497.34400000000005,-0.14099196200000003,-0.11907798399999998,0.08403104549999998,-0.80972612,-0.212902389,-0.33446679700000004,0.135934527,0.055188625199999994,0.06801339669999999,-0.24932751300000003,0.0459173672,0.169417814,,80.93939393939394,0,L26_NIRS-2019-09-05_005_trial02.txt,213.0
112,498.62399999999997,-0.15813760300000002,-0.14798208200000001,0.0007564756400000004,-0.846023838,-0.21935318199999995,-0.269170841,0.110241913,0.0415323546,0.043784699499999996,-0.24826126900000003,0.0515405444,0.17501606,,80.93939393939394,0,L26_NIRS-2019-09-05_005_trial02.txt,213.0
113,499.9040000000001,-0.167222294,-0.18210492700000003,-0.08950252950000001,-0.8912741340000002,-0.232868847,-0.23555543299999998,0.10107358039999999,0.03973945029999999,0.030466436000000003,-0.24301159199999994,0.05699124109999999,0.18499999800000003,,80.93939393939394,0,L26_NIRS-2019-09-05_005_trial02.txt,213.0
114,501.184,-0.181822451,-0.20386552600000002,-0.141297163,-0.9359047759999999,-0.263085422,-0.24905824400000004,0.1062250831,0.0407482574,0.0324264501,-0.23580553599999998,0.0569942437,0.18899930999999998,,80.93939393939394,0,L26_NIRS-2019-09-05_005_trial02.txt,213.0
115,502.46399999999994,-0.201264005,-0.192365926,-0.135952191,-0.9653355940000001,-0.29830213800000005,-0.28650869599999995,0.10899846989999999,0.038150143600000005,0.045407985,-0.22822481099999997,0.0509038953,0.17996195,,80.93939393939394,0,L26_NIRS-2019-09-05_005_trial02.txt,213.0
116,503.74399999999997,-0.31952623300000005,-0.165739942,-0.144764461,-0.9923098289999999,-0.34245907,-0.348155101,0.0692976424,0.028489161399999997,0.0363259546,-0.225991958,0.0413151101,0.162890276,,80.93939393939394,0,L26_NIRS-2019-09-05_005_trial02.txt,213.0
117,505.02400000000006,-0.41564397700000005,-0.142413167,-0.13436422,-0.9987382989999999,-0.368443653,-0.383087715,0.0256001347,0.01045704733,0.0218229033,-0.22539975299999995,0.0373680396,0.149618734,,80.93939393939394,0,L26_NIRS-2019-09-05_005_trial02.txt,213.0
118,506.3040000000001,-0.423382066,-0.139065426,-0.09766699370000001,-0.977109023,-0.358082652,-0.376553733,0.0076083704,0.00457822994,0.0174109134,-0.218416872,0.0425264111,0.14275600000000002,,80.93939393939394,0,L26_NIRS-2019-09-05_005_trial02.txt,213.0
119,507.58399999999995,-0.3460060549999999,-0.147555791,-0.05094815269999999,-0.9332670740000001,-0.31499237999999996,-0.341463875,0.025260669199999995,0.019368366300000002,0.0285284704,-0.20689164899999998,0.0558977347,0.13910113,,80.93939393939394,0,L26_NIRS-2019-09-05_005_trial02.txt,213.0
120,508.86400000000003,-0.23891451999999996,-0.171980643,-0.0247610353,-0.9095693149999999,-0.27218030800000004,-0.31527223000000004,0.0683256069,0.0413071667,0.0495908067,-0.19670839,0.06964572529999999,0.140565313,,80.93939393939394,0,L26_NIRS-2019-09-05_005_trial02.txt,213.0
121,510.14399999999995,-0.1245599767,-0.19661712599999998,-0.0157868402,-0.9077777539999999,-0.251496627,-0.29950499,0.11573644870000002,0.055139983700000006,0.0729633156,-0.193765178,0.0747059152,0.14117349299999998,,80.93939393939394,0,L26_NIRS-2019-09-05_005_trial02.txt,213.0
122,511.424,-0.031389191500000004,-0.19877567399999999,-0.00959279877,-0.9174105189999999,-0.254395641,-0.284778129,0.142061563,0.05377105889999999,0.08922062390000002,-0.19387987199999998,0.0702652251,0.134733238,,80.93939393939394,0,L26_NIRS-2019-09-05_005_trial02.txt,213.0
123,512.704,-0.001122131131,-0.18030631700000002,-0.019415074300000005,-0.9119521630000001,-0.27023670199999994,-0.27647609599999995,0.136220942,0.040315248600000006,0.0840015996,-0.20320834599999998,0.06275491600000001,0.12517013500000002,,80.93939393939394,0,L26_NIRS-2019-09-05_005_trial02.txt,213.0
124,513.984,0.0193053935,-0.16019768299999998,-0.006854584926000001,-0.9098477939999998,-0.278771683,-0.2649877300000001,0.12464230899999999,0.020885714999999996,0.0785266548,-0.21214058600000002,0.0572437588,0.113463315,,80.93939393939394,0,L26_NIRS-2019-09-05_005_trial02.txt,213.0
125,515.2640000000001,0.01536121737,-0.152836435,0.01862169548,-0.888405083,-0.25968570699999993,-0.24134590500000003,0.11182095699999998,0.0120985522,0.0757033172,-0.216870595,0.0539102812,0.10131856219999999,,80.93939393939394,0,L26_NIRS-2019-09-05_005_trial02.txt,213.0
126,516.544,-0.015434121781999998,-0.14337316800000002,0.0405567194,-0.8600198649999999,-0.213180317,-0.21037495299999995,0.10081985,0.012400013400000002,0.07303821220000001,-0.219175495,0.0501641966,0.08734433400000001,,80.93939393939394,0,L26_NIRS-2019-09-05_005_trial02.txt,213.0
127,517.824,-0.049846200900000005,-0.138746117,0.040695827700000006,-0.858462182,-0.167372813,-0.19115007,0.09868945290000002,0.0121740394,0.0697928077,-0.225754171,0.043079416499999995,0.07553307849999999,,80.93939393939394,0,L26_NIRS-2019-09-05_005_trial02.txt,213.0
128,519.104,-0.06048962,-0.13687664800000002,0.0232544631,-0.8777861509999999,-0.14329998500000002,-0.17875913299999996,0.1005740029,0.010421261120000002,0.06715021719999999,-0.24046630499999994,0.0323713254,0.0643831339,,80.93939393939394,0,L26_NIRS-2019-09-05_005_trial02.txt,213.0
129,520.384,-0.0509523598,-0.139036132,-0.0012885114520000001,-0.9016916550000001,-0.149097349,-0.164111793,0.105310537,0.00601472114,0.0657634007,-0.254086743,0.0209845908,0.052641346699999994,,80.93939393939394,0,L26_NIRS-2019-09-05_005_trial02.txt,213.0
130,521.664,-0.0033864876999999995,-0.13790297,-0.0010390208179999999,-0.902762551,-0.164059342,-0.136909712,0.11750417199999999,-0.0023589657161000002,0.072010919,-0.25907642899999994,0.01179398497,0.04601101549999999,,80.93939393939394,0,L26_NIRS-2019-09-05_005_trial02.txt,213.0
131,522.9439999999998,0.04819452240000001,-0.13011056299999998,0.027796732060000006,-0.8855159269999999,-0.17189330900000005,-0.1073138288,0.130985603,-0.010417418389999999,0.0834784007,-0.25789315900000004,0.007214789039999998,0.040284072299999994,,80.93939393939394,0,L26_NIRS-2019-09-05_005_trial02.txt,213.0
132,524.224,0.10557789180000002,-0.11597888900000002,0.09928575349999999,-0.8271794800000001,-0.15524515699999997,-0.0668356876,0.147837998,-0.015883684100000003,0.09974439189999999,-0.248280522,0.00711418944,0.0354240745,,80.93939393939394,0,L26_NIRS-2019-09-05_005_trial02.txt,213.0
133,525.504,0.15371830000000003,-0.09958384170000001,0.18957535099999995,-0.7684450250000001,-0.13449029799999998,-0.0420057286,0.16845490400000002,-0.0218410292,0.11575499000000003,-0.23293572299999998,0.00807746035,0.029398103600000003,,80.93939393939394,0,L26_NIRS-2019-09-05_005_trial02.txt,213.0
134,526.7839999999999,0.206409266,-0.0800789373,0.26800869999999993,-0.733637027,-0.12367019900000001,-0.0448686153,0.184686458,-0.0297457313,0.127399459,-0.22587421000000002,0.0071917809700000005,0.026935481199999993,,80.93939393939394,0,L26_NIRS-2019-09-05_005_trial02.txt,213.0
135,528.064,0.22848875799999996,-0.06820132890000001,0.303534994,-0.7328404930000001,-0.132142175,-0.0657424158,0.191796783,-0.0364755285,0.132113049,-0.23371126899999997,0.00491255763,0.024779269,,80.93939393939394,0,L26_NIRS-2019-09-05_005_trial02.txt,213.0
136,529.344,0.211091074,-0.0646153038,0.290760085,-0.753505794,-0.1450418,-0.0811637644,0.20324513399999997,-0.044282577899999995,0.126447814,-0.24850351999999995,-0.00012226687000000007,0.025012654000000002,,80.93939393939394,0,L26_NIRS-2019-09-05_005_trial02.txt,213.0
137,530.624,0.14560104499999998,-0.0770419693,0.24054506400000003,-0.789005232,-0.154196004,-0.09476875709999999,0.22216734000000002,-0.05649578369999999,0.11292492700000004,-0.261707709,-0.009802889879999999,0.0271386181,,80.93939393939394,0,L26_NIRS-2019-09-05_005_trial02.txt,213.0
138,531.9039999999999,0.0592655077,-0.0831461417,0.195022006,-0.7971902949999999,-0.13331658600000001,-0.08731732749999999,0.23514956699999998,-0.07355721909999999,0.09360287939999999,-0.27179916200000004,-0.0211896292,0.026739833299999998,,80.93939393939394,0,L26_NIRS-2019-09-05_005_trial02.txt,213.0
139,533.184,-0.02197353186,-0.08093019039999999,0.171910402,-0.78278868,-0.0955575041,-0.0695297542,0.22795073999999999,-0.09184539490000002,0.07049032530000002,-0.277479308,-0.0311412986,0.017264990600000002,,80.93939393939394,0,L26_NIRS-2019-09-05_005_trial02.txt,213.0
140,534.464,-0.08717528029999999,-0.08381675289999999,0.15697788500000004,-0.785430836,-0.07652178850000001,-0.0715199275,0.19930669399999998,-0.10493961999999998,0.0457647817,-0.27629434299999994,-0.035787580400000005,0.0030932276449999996,,80.93939393939394,0,L26_NIRS-2019-09-05_005_trial02.txt,213.0
141,535.7439999999999,-0.1016966762,-0.0845599641,0.139555931,-0.8043063540000001,-0.08437356859999999,-0.089575326,0.15086238600000001,-0.10960646699999999,0.0230047013,-0.27748516300000003,-0.0357508444,-0.010319095910000001,,80.93939393939394,0,L26_NIRS-2019-09-05_005_trial02.txt,213.0
142,537.024,-0.07803147430000001,-0.07599392320000001,0.110699242,-0.826221505,-0.11155286900000001,-0.11065358700000001,0.083536352,-0.10978469400000002,0.0026555833969999997,-0.279867119,-0.0310250848,-0.019370776299999996,,80.93939393939394,0,L26_NIRS-2019-09-05_005_trial02.txt,213.0
143,538.304,-0.0463478043,-0.05917537939999999,0.07867194949999999,-0.838494633,-0.134942141,-0.117985066,0.009224198900000001,-0.113079356,-0.02118240424,-0.28076551499999997,-0.0246431095,-0.021192933500000004,,80.93939393939394,0,L26_NIRS-2019-09-05_005_trial02.txt,213.0
144,539.5840000000001,-0.0607246579,-0.0607053575,0.026794113820000003,-0.8459561449999999,-0.15050399900000003,-0.134441376,-0.0625124474,-0.12143291999999999,-0.0511043406,-0.275559666,-0.020249990500000002,-0.018793575500000003,,80.93939393939394,0,L26_NIRS-2019-09-05_005_trial02.txt,213.0
145,540.8639999999999,-0.10969118130000002,-0.06714841299999999,-0.011122688158,-0.8197218600000001,-0.135525016,-0.13411989,-0.12437766530000001,-0.13157643300000002,-0.0815202843,-0.267376037,-0.017624670900000004,-0.0165275,,80.93939393939394,0,L26_NIRS-2019-09-05_005_trial02.txt,213.0
146,542.144,-0.188413277,-0.0770750104,-0.0349057691,-0.755538253,-0.10617840059999999,-0.11212601200000001,-0.172049887,-0.132207173,-0.10845308189999998,-0.25344231200000006,-0.0163161512,-0.0182230346,,80.93939393939394,0,L26_NIRS-2019-09-05_005_trial02.txt,213.0
147,543.424,-0.29835531299999996,-0.09804584320000001,-0.050915871999999994,-0.6913257890000001,-0.0913299229,-0.08694130459999999,-0.19030881900000002,-0.11326313300000002,-0.12336281499999999,-0.23794839199999998,-0.016493431500000003,-0.0162991849,,80.93939393939394,0,L26_NIRS-2019-09-05_005_trial02.txt,213.0
148,544.704,-0.41271869800000005,-0.124736828,-0.0632162267,-0.6517755759999999,-0.10695610729999998,-0.06363527940000001,-0.18778856500000002,-0.0833863921,-0.123511656,-0.22954169799999996,-0.019256446700000002,-0.00763195879,,80.93939393939394,0,L26_NIRS-2019-09-05_005_trial02.txt,213.0
149,545.984,-0.5450667419999999,-0.13700913099999998,-0.07493095329999999,-0.6459329699999999,-0.145580631,-0.06925248910000001,-0.217110978,-0.0625783915,-0.117805533,-0.22490242700000002,-0.023301018600000004,-0.00828020293,,80.93939393939394,0,L26_NIRS-2019-09-05_005_trial02.txt,213.0
150,547.2640000000001,-0.6310073110000001,-0.131478702,-0.0746909575,-0.6571757130000001,-0.17641827999999998,-0.08140596359999999,-0.26593672500000004,-0.062677017,-0.112412946,-0.22865876699999999,-0.0301193166,-0.0181288853,,80.93939393939394,0,L26_NIRS-2019-09-05_005_trial02.txt,213.0
151,548.544,-0.6769905249999999,-0.119606203,-0.0739968301,-0.669137926,-0.174151881,-0.0840515699,-0.33011190900000004,-0.0814538824,-0.11275093299999998,-0.22909804599999992,-0.0379062004,-0.034561904500000004,,80.93939393939394,0,L26_NIRS-2019-09-05_005_trial02.txt,213.0
152,549.824,-0.6671451310000001,-0.09292709340000002,-0.0617016938,-0.6450407009999999,-0.12092116989999999,-0.0487271758,-0.3791151360000001,-0.1049650585,-0.11398197400000001,-0.22466835500000001,-0.043985156000000004,-0.0525183597,,80.93939393939394,0,L26_NIRS-2019-09-05_005_trial02.txt,213.0
153,551.104,-0.6122409280000001,-0.0518983439,-0.034183448899999996,-0.577004881,-0.03016769175000001,0.028660081868999997,-0.38686187000000005,-0.120996875,-0.118082734,-0.22023964099999999,-0.05103900720000001,-0.0722234122,,80.93939393939394,0,L26_NIRS-2019-09-05_005_trial02.txt,213.0
154,552.384,-0.565388288,-0.0199228141,-0.005996285449999998,-0.5001823109999999,0.05414411100000001,0.1170162618,-0.348985867,-0.122012363,-0.122911696,-0.22199530399999995,-0.061971778600000006,-0.09022694120000001,,80.93939393939394,0,L26_NIRS-2019-09-05_005_trial02.txt,213.0
155,553.664,-0.530083664,-0.0168968112,0.028782312799999998,-0.463248193,0.0853834196,0.176764208,-0.277336543,-0.119632589,-0.121969803,-0.23337419699999998,-0.07892716930000002,-0.10100312739999999,,80.93939393939394,0,L26_NIRS-2019-09-05_005_trial02.txt,213.0
156,554.9439999999998,-0.564589861,-0.0388004408,0.045933916899999996,-0.487619355,0.052004427,0.158626437,-0.24284862499999998,-0.12467396500000001,-0.12390900499999999,-0.25067291599999997,-0.0953977161,-0.12211202399999999,,80.93939393939394,0,L26_NIRS-2019-09-05_005_trial02.txt,213.0
157,556.224,-0.574349317,-0.06967385979999999,0.05124858320000001,-0.550406414,-0.0141795001,0.09413578160000001,-0.22465024900000002,-0.138244943,-0.124046736,-0.26749809,-0.11023767,-0.14786918799999998,,80.93939393939394,0,L26_NIRS-2019-09-05_005_trial02.txt,213.0
158,557.504,-0.5553913840000001,-0.08750163050000001,0.0459105619,-0.609631029,-0.0654607673,0.0452079419,-0.24244745299999995,-0.155773102,-0.12422004199999999,-0.276299595,-0.11805724999999997,-0.178684067,,80.93939393939394,0,L26_NIRS-2019-09-05_005_trial02.txt,213.0
159,558.7839999999999,-0.49821599699999997,-0.0666511195,0.045258456300000006,-0.627502292,-0.0645226906,0.050895548400000004,-0.28282354000000004,-0.173474429,-0.12422409899999998,-0.273287786,-0.11988457599999999,-0.205469854,,80.93939393939394,0,L26_NIRS-2019-09-05_005_trial02.txt,213.0
160,560.064,-0.4268339279999999,-0.014785108730000001,0.0557825947,-0.610156412,-0.014851832299999998,0.1020462022,-0.32501609900000006,-0.19167994500000002,-0.130207105,-0.268087233,-0.12301843900000001,-0.22793585300000002,,80.93939393939394,0,L26_NIRS-2019-09-05_005_trial02.txt,213.0
161,561.344,-0.368750829,0.0331027206,0.06855211959999999,-0.573262167,0.0487300285,0.16292783500000002,-0.351873573,-0.205884526,-0.140832375,-0.26731578999999994,-0.129866421,-0.249999664,,80.93939393939394,0,L26_NIRS-2019-09-05_005_trial02.txt,213.0
162,562.624,-0.34471538,0.0412402189,0.08180902640000001,-0.545207348,0.080290133,0.179330279,-0.3584183229999999,-0.215257158,-0.147053975,-0.27650529300000004,-0.139708157,-0.267092946,,80.93939393939394,0,L26_NIRS-2019-09-05_005_trial02.txt,213.0
163,563.9039999999999,-0.35235058500000005,0.01858478834,0.0823307222,-0.539526481,0.06405239230000001,0.143691432,-0.346827594,-0.21761249099999996,-0.147424997,-0.28806219200000005,-0.149044447,-0.27963745400000006,,80.93939393939394,0,L26_NIRS-2019-09-05_005_trial02.txt,213.0
164,565.184,-0.37662079,-0.012330606608,0.06582354800000001,-0.566308164,0.01168325327,0.0769553071,-0.32560297400000004,-0.21508264700000002,-0.140139164,-0.294220883,-0.153347721,-0.2864597589999999,,80.93939393939394,0,L26_NIRS-2019-09-05_005_trial02.txt,213.0
165,566.144,-0.3921664160000001,-0.0243403304,0.0473884356,-0.60367401,-0.0366914832,0.0314342686,-0.31223045,-0.21363166999999997,-0.130639998,-0.297439526,-0.152068696,-0.286551768,,80.93939393939394,0,L26_NIRS-2019-09-05_005_trial02.txt,213.0
