,time,S3_D4_HbO,S3_D3_HbO,S2_D3_HbO,S2_D2_HbO,S1_D2_HbO,S1_D1_HbO,S3_D4_HbR,S3_D3_HbR,S2_D3_HbR,S2_D2_HbR,S1_D2_HbR,S1_D1_HbR,Var14,score,labelnum,filename,total_time
0,840.64,-0.13084987,0.041928390100000004,-0.130141545,0.20815851200000002,-0.178909126,0.146685826,-0.211305481,-0.116885883,-0.0747483747,-0.19440862399999997,-0.0954182434,-0.00640094329,,30.78787878787879,0,L26_NIRS-2019-09-05_005_trial04.txt,248.0
1,841.9200000000001,-0.13713329800000001,0.0348089632,-0.173472817,0.191335684,-0.16616551400000001,0.131137264,-0.249842984,-0.12223721800000001,-0.10006276449999998,-0.21378036799999997,-0.09423111090000003,-0.000222900267,,30.78787878787879,0,L26_NIRS-2019-09-05_005_trial04.txt,248.0
2,843.2,-0.18391697099999998,0.01304245763,-0.21659821799999998,0.171496873,-0.16009595100000001,0.112727972,-0.266503634,-0.11354679100000001,-0.114536408,-0.224865769,-0.0915598336,0.01086501569,,30.78787878787879,0,L26_NIRS-2019-09-05_005_trial04.txt,248.0
3,844.4799999999999,-0.18651774799999998,-0.005616054271,-0.21443596199999998,0.16632766300000001,-0.16056691500000003,0.11319602799999999,-0.25189953500000006,-0.11012655099999999,-0.1078622601,-0.23516549999999997,-0.0872427485,0.0242065618,,30.78787878787879,0,L26_NIRS-2019-09-05_005_trial04.txt,248.0
4,845.7599999999999,-0.146215677,-0.031105640499999997,-0.178558204,0.152493646,-0.17006723699999998,0.123287348,-0.21663434,-0.1120965,-0.08271170450000001,-0.23718844299999997,-0.0829351356,0.03749318549999999,,30.78787878787879,0,L26_NIRS-2019-09-05_005_trial04.txt,248.0
5,847.04,-0.0751946549,-0.0731670549,-0.142239551,0.12440763299999999,-0.191112395,0.12923813599999998,-0.169577075,-0.11742202100000002,-0.04976245659999999,-0.235206267,-0.07950290980000001,0.0466011781,,30.78787878787879,0,L26_NIRS-2019-09-05_005_trial04.txt,248.0
6,848.32,-0.00542687004,-0.12417989399999999,-0.12568429200000003,0.0769633354,-0.21051081700000002,0.129066428,-0.11861493399999998,-0.127829762,-0.0204719774,-0.23412859900000002,-0.07948959850000001,0.048010849800000005,,30.78787878787879,0,L26_NIRS-2019-09-05_005_trial04.txt,248.0
7,849.6,0.0205272915,-0.160230018,-0.13865722300000002,0.0565461918,-0.210312696,0.148912024,-0.097665505,-0.138527572,-0.0077423866,-0.234991403,-0.08351717439999999,0.0370692314,,30.78787878787879,0,L26_NIRS-2019-09-05_005_trial04.txt,248.0
8,850.8800000000001,0.019529148149999998,-0.16716341099999998,-0.14682059600000003,0.06295213390000001,-0.19120266,0.179213809,-0.1055849831,-0.141877012,-0.005772728350000001,-0.23203785799999999,-0.08668635,0.01353833573,,30.78787878787879,0,L26_NIRS-2019-09-05_005_trial04.txt,248.0
9,852.1600000000001,-0.032466859533,-0.1207208974,-0.15567744600000002,0.11890535949999999,-0.158243266,0.196964112,-0.15009949700000003,-0.138814726,-0.0222752901,-0.22491876,-0.0899684533,-0.01726861961,,30.78787878787879,0,L26_NIRS-2019-09-05_005_trial04.txt,248.0
10,853.4399999999999,-0.10317221410000002,-0.048568379300000006,-0.152767881,0.195093423,-0.12347798900000002,0.183956171,-0.20824843999999998,-0.141293929,-0.04837669879999999,-0.22588069300000005,-0.0960357547,-0.052858172300000006,,30.78787878787879,0,L26_NIRS-2019-09-05_005_trial04.txt,248.0
11,854.7199999999999,-0.21091156,-0.0003390119349999999,-0.17661616800000002,0.236089121,-0.09504560949999999,0.145695376,-0.255380416,-0.141998931,-0.08096825240000001,-0.23065604999999997,-0.10522348499999998,-0.0806019582,,30.78787878787879,0,L26_NIRS-2019-09-05_005_trial04.txt,248.0
12,856.0,-0.306858179,-0.007892377942000001,-0.247383824,0.227228614,-0.07911075520000001,0.11919126100000002,-0.258870316,-0.13987061,-0.1125579045,-0.24365620399999996,-0.11331044900000002,-0.0955741108,,30.78787878787879,0,L26_NIRS-2019-09-05_005_trial04.txt,248.0
13,857.2800000000001,-0.375437192,-0.0589022208,-0.353397856,0.18983618899999996,-0.0725211517,0.11375910200000001,-0.22424229599999998,-0.133061714,-0.135627663,-0.25507369699999993,-0.118394768,-0.0979847927,,30.78787878787879,0,L26_NIRS-2019-09-05_005_trial04.txt,248.0
14,858.5599999999998,-0.40938842300000006,-0.1084668027,-0.4483121179999999,0.165748767,-0.06791431639999998,0.135521179,-0.175833673,-0.115995665,-0.143879677,-0.26136366,-0.12034160800000002,-0.0945479905,,30.78787878787879,0,L26_NIRS-2019-09-05_005_trial04.txt,248.0
15,859.8399999999999,-0.4633426239999999,-0.124056423,-0.482228319,0.15196685799999998,-0.0713191756,0.14950901900000002,-0.155403036,-0.10033750190000001,-0.139654843,-0.25597685000000003,-0.12151974800000001,-0.09787867609999999,,30.78787878787879,0,L26_NIRS-2019-09-05_005_trial04.txt,248.0
16,861.1200000000001,-0.5334375299999999,-0.09299746920000002,-0.46262254599999997,0.17658952300000003,-0.08851411179999999,0.13885467099999999,-0.172272321,-0.0942705817,-0.141737098,-0.239181074,-0.126460977,-0.10797347800000001,,30.78787878787879,0,L26_NIRS-2019-09-05_005_trial04.txt,248.0
17,862.4,-0.584066456,-0.039948240499999996,-0.41411408199999994,0.207221323,-0.12149124100000001,0.0989618515,-0.212372277,-0.0997382993,-0.152572843,-0.221449866,-0.13506115000000002,-0.12963254200000002,,30.78787878787879,0,L26_NIRS-2019-09-05_005_trial04.txt,248.0
18,863.68,-0.606382872,0.00179617352,-0.38485746499999995,0.22988326899999997,-0.14920495100000003,0.06383870620000001,-0.26551161399999995,-0.11082718300000001,-0.174025885,-0.206899311,-0.142990087,-0.154272102,,30.78787878787879,0,L26_NIRS-2019-09-05_005_trial04.txt,248.0
19,864.96,-0.6039716249999999,0.010882495349999998,-0.40703096999999994,0.24484217800000002,-0.14973505499999998,0.057016308599999996,-0.32006965899999995,-0.12011120300000003,-0.20243766799999996,-0.208673537,-0.14492275000000002,-0.183899578,,30.78787878787879,0,L26_NIRS-2019-09-05_005_trial04.txt,248.0
20,866.2400000000001,-0.5306675459999999,-0.003904875231,-0.44046401899999993,0.271754121,-0.11550322990000002,0.0915955519,-0.34773794599999996,-0.13083040299999998,-0.216655766,-0.21198248,-0.14244176700000002,-0.20038078600000003,,30.78787878787879,0,L26_NIRS-2019-09-05_005_trial04.txt,248.0
21,867.5200000000001,-0.4171905229999999,-0.0157689403,-0.4467213919999999,0.28594872800000004,-0.0730282282,0.12635396100000001,-0.33620731,-0.137333623,-0.20415676400000002,-0.215941005,-0.14124508800000002,-0.201824095,,30.78787878787879,0,L26_NIRS-2019-09-05_005_trial04.txt,248.0
22,868.8,-0.372369533,-0.006597579244,-0.418626762,0.278270951,-0.0490301027,0.13772741500000002,-0.327520734,-0.14202399699999999,-0.17976449900000002,-0.22279443100000001,-0.14419927899999999,-0.199568864,,30.78787878787879,0,L26_NIRS-2019-09-05_005_trial04.txt,248.0
23,870.0799999999999,-0.42595294,0.02412338175,-0.388064265,0.251054207,-0.05634282319999999,0.1102664699,-0.337683711,-0.145635866,-0.1672621,-0.23389558599999996,-0.15064228100000002,-0.20103358599999996,,30.78787878787879,0,L26_NIRS-2019-09-05_005_trial04.txt,248.0
24,871.36,-0.510316945,0.054846521999999995,-0.355546381,0.21076511,-0.08302590010000001,0.0802549088,-0.34956430000000005,-0.150586214,-0.164547679,-0.24689750000000005,-0.155749088,-0.21276783800000004,,30.78787878787879,0,L26_NIRS-2019-09-05_005_trial04.txt,248.0
25,872.64,-0.59553051,0.0635068072,-0.343788428,0.172002433,-0.10298465719999998,0.0658799233,-0.361711823,-0.152008704,-0.16774230900000003,-0.254170488,-0.15568041600000002,-0.23026779399999997,,30.78787878787879,0,L26_NIRS-2019-09-05_005_trial04.txt,248.0
26,873.9200000000001,-0.6656121080000001,0.0421486042,-0.357202334,0.158692376,-0.09183849079999999,0.06534307680000001,-0.364555795,-0.14130833099999998,-0.167898043,-0.257665815,-0.1507476,-0.253136272,,30.78787878787879,0,L26_NIRS-2019-09-05_005_trial04.txt,248.0
27,875.2,-0.6651922109999999,0.007180519594,-0.357905549,0.19226503300000003,-0.048035283500000005,0.1036946989,-0.33844411999999996,-0.12693326600000002,-0.15537874299999999,-0.238156463,-0.14639048100000002,-0.258429424,,30.78787878787879,0,L26_NIRS-2019-09-05_005_trial04.txt,248.0
28,876.4799999999999,-0.603243015,-0.014750272580000001,-0.320284769,0.254964814,-0.0008111518030000014,0.156325804,-0.2793269159999999,-0.11547251699999998,-0.12652269200000002,-0.208871317,-0.148510429,-0.24363971499999998,,30.78787878787879,0,L26_NIRS-2019-09-05_005_trial04.txt,248.0
29,877.7599999999999,-0.4734815520000001,-0.007285851429000001,-0.24450624600000004,0.301413513,0.022009473,0.21686494100000003,-0.209255853,-0.12017633800000001,-0.09245782770000001,-0.183902327,-0.157250287,-0.22336344000000002,,30.78787878787879,0,L26_NIRS-2019-09-05_005_trial04.txt,248.0
30,879.04,-0.35078748000000004,0.029033915849999998,-0.183029192,0.321294897,0.0190750247,0.289364612,-0.18088711600000001,-0.14059742799999997,-0.07593807890000001,-0.17713460900000003,-0.16904692800000004,-0.20868404699999998,,30.78787878787879,0,L26_NIRS-2019-09-05_005_trial04.txt,248.0
31,880.32,-0.24228837099999997,0.0712574928,-0.13151890400000002,0.336037821,0.020878189399999997,0.39819184500000004,-0.187851112,-0.170209594,-0.0743527406,-0.185140492,-0.177622053,-0.205972564,,30.78787878787879,0,L26_NIRS-2019-09-05_005_trial04.txt,248.0
32,881.6,-0.15504742300000002,0.1118096902,-0.07641289309999999,0.370905983,0.050110763200000005,0.537537053,-0.215424384,-0.19847855199999997,-0.0805565508,-0.19521033399999996,-0.17902714599999997,-0.218905003,,30.78787878787879,0,L26_NIRS-2019-09-05_005_trial04.txt,248.0
33,882.8800000000001,-0.10232852690000001,0.15730035,-0.012987708672999998,0.443316954,0.113706475,0.6527813229999999,-0.251535394,-0.217146288,-0.0926508093,-0.20607767399999996,-0.176456263,-0.241733926,,30.78787878787879,0,L26_NIRS-2019-09-05_005_trial04.txt,248.0
34,884.1600000000001,-0.0830055182,0.199046893,0.044449685100000004,0.543136737,0.18293434599999997,0.714690769,-0.28738544299999996,-0.22678949099999998,-0.112629183,-0.208967764,-0.17634999799999998,-0.26245661,,30.78787878787879,0,L26_NIRS-2019-09-05_005_trial04.txt,248.0
35,885.4399999999999,-0.0918396318,0.21025189800000002,0.0762737753,0.602723158,0.20502765800000003,0.6679106550000001,-0.304961401,-0.22882726599999997,-0.12781725700000002,-0.21426496899999997,-0.181690651,-0.278081908,,30.78787878787879,0,L26_NIRS-2019-09-05_005_trial04.txt,248.0
36,886.7199999999999,-0.10351500470000001,0.18910297099999998,0.0517807338,0.564253422,0.164776614,0.5494359420000001,-0.30692520600000006,-0.23127531,-0.13616915899999998,-0.22821405599999997,-0.191013729,-0.29258391,,30.78787878787879,0,L26_NIRS-2019-09-05_005_trial04.txt,248.0
37,888.0,-0.054697910599999996,0.179720499,0.0432084662,0.5386817749999999,0.15098450900000002,0.538532255,-0.298043292,-0.23616087999999996,-0.12816540099999998,-0.243426002,-0.19595068200000001,-0.291844096,,30.78787878787879,0,L26_NIRS-2019-09-05_005_trial04.txt,248.0
38,889.2800000000001,0.07446037881,0.22156745500000002,0.110540117,0.6273658980000001,0.23964835300000004,0.7291970750000001,-0.276195135,-0.235804976,-0.10956899899999999,-0.24975708400000002,-0.194088285,-0.281679086,,30.78787878787879,0,L26_NIRS-2019-09-05_005_trial04.txt,248.0
39,890.5599999999998,0.27908183,0.31943819900000003,0.284469009,0.8441561030000001,0.43773257800000004,1.095490818,-0.23850526700000002,-0.228103334,-0.0880364912,-0.24657896999999998,-0.190508918,-0.273127906,,30.78787878787879,0,L26_NIRS-2019-09-05_005_trial04.txt,248.0
40,891.8399999999999,0.513869157,0.45448552100000006,0.5322564639999999,1.139510591,0.6910953519999998,1.51545745,-0.193188695,-0.215310792,-0.0718041938,-0.24154685500000003,-0.192209191,-0.27497781600000004,,30.78787878787879,0,L26_NIRS-2019-09-05_005_trial04.txt,248.0
41,893.1200000000001,0.685345388,0.575908044,0.770823054,1.4150273899999999,0.904204866,1.83060132,-0.17041374299999998,-0.20853422100000002,-0.0684926309,-0.243569397,-0.205042123,-0.292291426,,30.78787878787879,0,L26_NIRS-2019-09-05_005_trial04.txt,248.0
42,894.4,0.7304776480000001,0.6304721069999999,0.9036631960000001,1.53528898,0.985439424,1.91539844,-0.18007666300000003,-0.21716758399999997,-0.0812917706,-0.260210131,-0.229509643,-0.328536919,,30.78787878787879,0,L26_NIRS-2019-09-05_005_trial04.txt,248.0
43,895.68,0.6499747229999999,0.606982486,0.872539318,1.46397862,0.9196625669999999,1.7804631499999999,-0.221786741,-0.242967502,-0.1086348941,-0.293102062,-0.26158140999999996,-0.37932583899999994,,30.78787878787879,0,L26_NIRS-2019-09-05_005_trial04.txt,248.0
44,896.96,0.536473942,0.5454249260000001,0.75221679,1.2850114399999997,0.793336171,1.56212915,-0.271621795,-0.27860265100000003,-0.13737878600000003,-0.32910162800000003,-0.289880933,-0.421975817,,30.78787878787879,0,L26_NIRS-2019-09-05_005_trial04.txt,248.0
45,898.2400000000001,0.41376103100000006,0.48733878100000005,0.6127300649999998,1.10848334,0.6788236940000001,1.3436312,-0.314289797,-0.30685946900000005,-0.165520435,-0.36011674699999996,-0.310759562,-0.457763003,,30.78787878787879,0,L26_NIRS-2019-09-05_005_trial04.txt,248.0
46,899.5200000000001,0.309812843,0.43316791600000004,0.500250871,0.9813953700000001,0.590673204,1.1520002299999998,-0.326666919,-0.31583992099999997,-0.184445151,-0.38404644999999993,-0.322015235,-0.4807292289999999,,30.78787878787879,0,L26_NIRS-2019-09-05_005_trial04.txt,248.0
47,900.8,0.208347397,0.36963109899999996,0.41709553800000004,0.8942449800000001,0.5049995899999999,0.975774998,-0.307406369,-0.304576432,-0.188995123,-0.396337076,-0.324365089,-0.489163796,,30.78787878787879,0,L26_NIRS-2019-09-05_005_trial04.txt,248.0
48,902.0799999999999,0.09411347210000001,0.29318314900000003,0.344727259,0.819964462,0.399747627,0.806679334,-0.27834703800000005,-0.285114699,-0.181357308,-0.402439704,-0.31912068600000004,-0.48559877600000007,,30.78787878787879,0,L26_NIRS-2019-09-05_005_trial04.txt,248.0
49,903.36,-0.01988607144,0.21311136000000003,0.25641795300000003,0.7194432730000001,0.28608740000000005,0.664164586,-0.25644665800000005,-0.27150310499999997,-0.17211245699999997,-0.4001742549999999,-0.31015999400000005,-0.475055434,,30.78787878787879,0,L26_NIRS-2019-09-05_005_trial04.txt,248.0
50,904.64,-0.0731820665,0.16332562999999997,0.16346329499999998,0.6234975890000001,0.21243327299999998,0.584994483,-0.23810965099999998,-0.26654021400000005,-0.16019947299999998,-0.39262236899999997,-0.29971694600000004,-0.462718515,,30.78787878787879,0,L26_NIRS-2019-09-05_005_trial04.txt,248.0
51,905.9200000000001,-0.0499681261,0.15835165499999998,0.0991998562,0.554248091,0.19223960899999998,0.541799447,-0.230048879,-0.26759463099999997,-0.14962377599999999,-0.37793488599999997,-0.297575832,-0.464203939,,30.78787878787879,0,L26_NIRS-2019-09-05_005_trial04.txt,248.0
52,907.2,0.1264526346,0.214783269,0.15189846499999998,0.563777507,0.20779057399999998,0.587528177,-0.19397766300000002,-0.26136188099999996,-0.12012949000000002,-0.3554119069999999,-0.315013759,-0.4682583510000001,,30.78787878787879,0,L26_NIRS-2019-09-05_005_trial04.txt,248.0
53,908.4799999999999,0.0957187057,0.306516112,0.16729698399999998,0.636964289,0.288512526,0.670046581,-0.25083162499999995,-0.262976161,-0.12344006700000001,-0.34152832499999997,-0.257055033,-0.4341251850000001,,30.78787878787879,0,L26_NIRS-2019-09-05_005_trial04.txt,248.0
54,909.7599999999999,-0.08843057756,0.373345483,0.151895643,0.714062402,0.36197379500000004,0.662358435,-0.373595779,-0.28931341,-0.14591884400000002,-0.345648678,-0.155475553,-0.392702231,,30.78787878787879,0,L26_NIRS-2019-09-05_005_trial04.txt,248.0
55,911.04,-0.300555496,0.398696807,0.056365658369999995,0.763860379,0.40895373399999996,0.5574565570000001,-0.5079505369999999,-0.33281481100000004,-0.182521669,-0.361070652,-0.041795697820000005,-0.35523789399999994,,30.78787878787879,0,L26_NIRS-2019-09-05_005_trial04.txt,248.0
56,912.32,-0.43590011000000006,0.40251257600000007,-0.1244122725,0.779916285,0.46696385300000004,0.424300577,-0.608164064,-0.37884196100000006,-0.22767449400000003,-0.37980431,0.0637091423,-0.328032509,,30.78787878787879,0,L26_NIRS-2019-09-05_005_trial04.txt,248.0
57,913.6,-0.413342968,0.407886624,-0.28532393699999997,0.7705700229999999,0.5545797699999999,0.29905377099999997,-0.629328416,-0.414096967,-0.24965052000000001,-0.393177232,0.140574412,-0.32176063600000004,,30.78787878787879,0,L26_NIRS-2019-09-05_005_trial04.txt,248.0
58,914.8800000000001,-0.26500950599999995,0.417721114,-0.34325911200000003,0.7643759370000001,0.6248110419999999,0.1590479118,-0.564765474,-0.42578598300000003,-0.23255481099999997,-0.38775668700000004,0.162904018,-0.34442378300000004,,30.78787878787879,0,L26_NIRS-2019-09-05_005_trial04.txt,248.0
59,916.1600000000001,-0.032080180410000006,0.43069928199999996,-0.26945909700000004,0.7697540289999999,0.628065076,0.0380428251,-0.42570008699999995,-0.407310771,-0.17789650099999998,-0.360582544,0.121574255,-0.38288227599999997,,30.78787878787879,0,L26_NIRS-2019-09-05_005_trial04.txt,248.0
60,917.4399999999999,0.001874186070000001,0.44793257400000003,-0.208003238,0.7601200519999999,0.611901216,-0.02746379744,-0.351222859,-0.38024326199999997,-0.13539869899999998,-0.326829626,0.11204439100000001,-0.385511995,,30.78787878787879,0,L26_NIRS-2019-09-05_005_trial04.txt,248.0
61,918.72,-0.055758025,0.435727993,-0.14517516199999997,0.753377799,0.572091363,-0.08210707419999999,-0.35113999700000004,-0.36836735900000006,-0.1062004108,-0.30128473,0.10792030999999998,-0.38784473699999994,,30.78787878787879,0,L26_NIRS-2019-09-05_005_trial04.txt,248.0
62,920.0,-0.0587544134,0.4126842419999999,-0.12804225499999997,0.787956514,0.563285862,-0.07488735970000002,-0.38617510200000005,-0.360226823,-0.0900536504,-0.277113915,0.11057910800000001,-0.382069608,,30.78787878787879,0,L26_NIRS-2019-09-05_005_trial04.txt,248.0
63,921.28,0.01039750352,0.397448917,-0.18071044199999997,0.8582974200000001,0.633933893,0.015059014929999998,-0.43032090700000003,-0.34940151900000005,-0.09346471580000001,-0.25582490999999996,0.126624842,-0.365170768,,30.78787878787879,0,L26_NIRS-2019-09-05_005_trial04.txt,248.0
64,922.5600000000001,0.1350845951,0.39659070399999996,-0.22247575199999997,0.9443152650000002,0.772494085,0.1607059545,-0.443045786,-0.336790588,-0.09813313990000001,-0.24822894300000004,0.152530683,-0.338611799,,30.78787878787879,0,L26_NIRS-2019-09-05_005_trial04.txt,248.0
65,923.8399999999999,0.23400539399999998,0.393900461,-0.226343073,1.0387050850000001,0.9066987550000001,0.287400065,-0.416041569,-0.31834765200000004,-0.0966860573,-0.247835014,0.17748242399999997,-0.29991025000000004,,30.78787878787879,0,L26_NIRS-2019-09-05_005_trial04.txt,248.0
66,925.1199999999999,0.260295615,0.379373815,-0.193082005,1.10906629,0.978003902,0.34234647100000004,-0.358834299,-0.298132175,-0.08694039039999998,-0.253270553,0.19255568,-0.255603267,,30.78787878787879,0,L26_NIRS-2019-09-05_005_trial04.txt,248.0
67,926.4,0.215391516,0.34518860900000004,-0.14937852000000001,1.1357513,0.968437583,0.32285087300000004,-0.29308998199999997,-0.281164149,-0.07147856240000001,-0.26004009000000006,0.19533438099999997,-0.22143854799999999,,30.78787878787879,0,L26_NIRS-2019-09-05_005_trial04.txt,248.0
68,927.68,0.15999721400000003,0.309871362,-0.10572186989999999,1.14566262,0.921138798,0.279551617,-0.24028790299999997,-0.26956202800000006,-0.0517194932,-0.26891812600000004,0.19192140800000002,-0.202924822,,30.78787878787879,0,L26_NIRS-2019-09-05_005_trial04.txt,248.0
69,928.96,0.117547115,0.27768750099999995,-0.09998593580000001,1.13534996,0.8753942909999999,0.23550005099999996,-0.210407462,-0.264265659,-0.03726767870000001,-0.27420042,0.190794686,-0.201070501,,30.78787878787879,0,L26_NIRS-2019-09-05_005_trial04.txt,248.0
70,930.2400000000001,0.11407930299999999,0.25885214100000004,-0.121509793,1.10222675,0.86160684,0.209524043,-0.199871921,-0.265745122,-0.0249684353,-0.279676237,0.193533487,-0.20952805400000002,,30.78787878787879,0,L26_NIRS-2019-09-05_005_trial04.txt,248.0
71,931.5200000000001,0.14138415799999998,0.26653307699999995,-0.15437397800000002,1.06948197,0.888803674,0.223463292,-0.20092861499999998,-0.272445799,-0.0175071824,-0.29074919400000004,0.19638808800000002,-0.22329857499999997,,30.78787878787879,0,L26_NIRS-2019-09-05_005_trial04.txt,248.0
72,932.8,0.21552791,0.30456213100000007,-0.15077797399999998,1.0582934200000003,0.9410617059999999,0.286371011,-0.210149203,-0.285308086,-0.008775181609999998,-0.293656394,0.195362328,-0.238724422,,30.78787878787879,0,L26_NIRS-2019-09-05_005_trial04.txt,248.0
73,934.0799999999999,0.293449706,0.353395263,-0.11274245670000001,1.0948859499999999,0.986214089,0.34894232199999997,-0.236478869,-0.30086506599999996,-0.0006222512379999998,-0.292940636,0.190500061,-0.2490745,,30.78787878787879,0,L26_NIRS-2019-09-05_005_trial04.txt,248.0
74,935.36,0.35316656,0.38918704000000004,-0.0520505029,1.17091591,1.0195397000000004,0.39139333800000004,-0.26718476999999996,-0.315156453,0.006028682920000001,-0.29053325699999993,0.184974209,-0.25830569300000006,,30.78787878787879,0,L26_NIRS-2019-09-05_005_trial04.txt,248.0
75,936.6400000000001,0.36884250900000004,0.39939543399999994,-0.0074346768590000025,1.26883157,1.04770133,0.41264749399999995,-0.28682516,-0.322694399,0.00579767384,-0.290004041,0.18013235300000002,-0.265306669,,30.78787878787879,0,L26_NIRS-2019-09-05_005_trial04.txt,248.0
76,937.9199999999998,0.330892166,0.383179977,-0.00010788795600000043,1.3329793900000002,1.06872842,0.42169021500000003,-0.290267001,-0.32593391,-0.004003371678699999,-0.29357999200000007,0.17678608,-0.27131926700000003,,30.78787878787879,0,L26_NIRS-2019-09-05_005_trial04.txt,248.0
77,939.1999999999998,0.285469235,0.35990472900000003,-0.023430495690000004,1.35305859,1.0785083,0.43070377400000004,-0.27865828,-0.32669413,-0.018256783699999998,-0.308104555,0.17433907299999998,-0.27270899099999996,,30.78787878787879,0,L26_NIRS-2019-09-05_005_trial04.txt,248.0
78,940.4800000000001,0.265938235,0.351380352,-0.06186142809999999,1.3293608700000001,1.0739972400000002,0.42937954899999997,-0.268142917,-0.32690110800000005,-0.0310269454,-0.322304208,0.167871458,-0.281248421,,30.78787878787879,0,L26_NIRS-2019-09-05_005_trial04.txt,248.0
79,941.7599999999999,0.282706184,0.366294753,-0.08716397379999999,1.27513534,1.0617743,0.41342726899999993,-0.266015044,-0.33232798499999994,-0.040407507,-0.32761998600000003,0.154510714,-0.29677992799999997,,30.78787878787879,0,L26_NIRS-2019-09-05_005_trial04.txt,248.0
80,943.04,0.291385716,0.39283852599999997,-0.09402438300000002,1.2283456000000001,1.0581832199999996,0.36569791,-0.28582331400000005,-0.33925312,-0.048647391,-0.33670928899999997,0.13660565100000002,-0.325893903,,30.78787878787879,0,L26_NIRS-2019-09-05_005_trial04.txt,248.0
81,944.32,0.288288356,0.41024190699999996,-0.0722754309,1.2444703900000003,1.0827918799999998,0.32622777000000003,-0.32063479,-0.345149557,-0.0545299479,-0.345219982,0.12112693300000002,-0.35807746500000004,,30.78787878787879,0,L26_NIRS-2019-09-05_005_trial04.txt,248.0
82,945.6,0.294566933,0.41668695199999994,-0.0338903829,1.3241498699999998,1.1348904499999999,0.345547339,-0.340282847,-0.347453994,-0.0574444418,-0.34648426400000004,0.11368768600000001,-0.37130124,,30.78787878787879,0,L26_NIRS-2019-09-05_005_trial04.txt,248.0
83,946.8800000000001,0.29350241400000004,0.41401695599999994,-0.013926656240000002,1.42723819,1.19236679,0.41674171100000007,-0.340631801,-0.347048984,-0.0658735477,-0.34663876400000004,0.11288383799999997,-0.363464715,,30.78787878787879,0,L26_NIRS-2019-09-05_005_trial04.txt,248.0
84,948.1600000000001,0.33167905,0.41561543,0.014133661280000001,1.50759442,1.22576538,0.503452817,-0.31793603,-0.34558197599999996,-0.0666974504,-0.344731788,0.11412793400000001,-0.345669683,,30.78787878787879,0,L26_NIRS-2019-09-05_005_trial04.txt,248.0
85,949.4399999999999,0.40382327799999995,0.43430621999999997,0.041511047599999996,1.5428533400000002,1.21867052,0.562818598,-0.29123276800000003,-0.3404664650000001,-0.058014637599999995,-0.34158912799999996,0.11172068800000001,-0.333328143,,30.78787878787879,0,L26_NIRS-2019-09-05_005_trial04.txt,248.0
86,950.72,0.45518157100000006,0.4685473480000001,0.0557163455,1.53173658,1.1854062200000002,0.5850606119999999,-0.28218954400000007,-0.33698586,-0.0527629679,-0.338160434,0.105435919,-0.32471748699999997,,30.78787878787879,0,L26_NIRS-2019-09-05_005_trial04.txt,248.0
87,952.0,0.450854818,0.4889726629999999,0.047025279999999996,1.48393708,1.1551477799999998,0.5771606160000001,-0.295869317,-0.336759187,-0.05508832939999999,-0.344283013,0.0967893305,-0.33337758,,30.78787878787879,0,L26_NIRS-2019-09-05_005_trial04.txt,248.0
88,953.28,0.38231928899999995,0.462842007,-0.0010066397100000003,1.43879986,1.1384917,0.550953348,-0.32962121699999997,-0.335966123,-0.06424073290000001,-0.356268125,0.0874054739,-0.356695249,,30.78787878787879,0,L26_NIRS-2019-09-05_005_trial04.txt,248.0
89,954.5600000000001,0.29289518699999995,0.401823115,-0.08499695730000001,1.399207,1.12908564,0.528352111,-0.35823731200000003,-0.335497958,-0.07770166009999999,-0.364683077,0.0795912256,-0.37362129000000005,,30.78787878787879,0,L26_NIRS-2019-09-05_005_trial04.txt,248.0
90,955.8399999999999,0.216635234,0.34566715800000003,-0.176364681,1.3650625900000002,1.1205172,0.508740274,-0.37319521299999997,-0.33991043200000004,-0.09455349459999998,-0.372041524,0.072066787,-0.38246376099999996,,30.78787878787879,0,L26_NIRS-2019-09-05_005_trial04.txt,248.0
91,957.1199999999999,0.22024249300000004,0.329572938,-0.190118146,1.34488341,1.11749623,0.5117594679999999,-0.367607717,-0.348645333,-0.09660071729999999,-0.372700429,0.0629689729,-0.390978018,,30.78787878787879,0,L26_NIRS-2019-09-05_005_trial04.txt,248.0
92,958.4,0.26465868699999995,0.35723032200000004,-0.151456282,1.35931627,1.1224525799999998,0.53429879,-0.361070978,-0.35199979400000003,-0.0915764926,-0.36868831599999996,0.05587964470000001,-0.40037206099999995,,30.78787878787879,0,L26_NIRS-2019-09-05_005_trial04.txt,248.0
93,959.68,0.32230848399999995,0.40554425099999997,-0.08126357320000001,1.3999253200000001,1.1456179199999998,0.570388152,-0.35908675100000004,-0.351351265,-0.0821660698,-0.35732687399999996,0.056469970300000005,-0.40647528800000005,,30.78787878787879,0,L26_NIRS-2019-09-05_005_trial04.txt,248.0
94,960.96,0.344267943,0.425265522,-0.03182797699999999,1.43859098,1.17148711,0.586334499,-0.35649142500000003,-0.3537379869999999,-0.07242775629999999,-0.35120951300000003,0.060374207400000005,-0.41343705599999997,,30.78787878787879,0,L26_NIRS-2019-09-05_005_trial04.txt,248.0
95,962.2400000000001,0.32504687,0.39926722499999995,-0.0335303537,1.45036938,1.19545644,0.58086347,-0.35091633600000005,-0.35465663300000005,-0.06732433149999999,-0.35458122499999994,0.059304215400000006,-0.422283408,,30.78787878787879,0,L26_NIRS-2019-09-05_005_trial04.txt,248.0
96,963.5200000000001,0.281842303,0.3548365300000001,-0.0871044893,1.4343095,1.20425808,0.5643917119999999,-0.33987837,-0.34954404400000005,-0.0654307624,-0.36714973100000003,0.0529183685,-0.42985985699999996,,30.78787878787879,0,L26_NIRS-2019-09-05_005_trial04.txt,248.0
97,964.8,0.276889043,0.34116793400000006,-0.12645869599999998,1.4212640699999999,1.20777516,0.570657043,-0.31507148399999996,-0.34170644,-0.0568218629,-0.37982991,0.04770566319999999,-0.43271621099999996,,30.78787878787879,0,L26_NIRS-2019-09-05_005_trial04.txt,248.0
98,966.0799999999999,0.307218767,0.3595766990000001,-0.11768604199999999,1.4261369799999999,1.20811833,0.5936546180000001,-0.28631656099999997,-0.334031557,-0.04416471079999999,-0.38240355000000004,0.04678133300000001,-0.429179077,,30.78787878787879,0,L26_NIRS-2019-09-05_005_trial04.txt,248.0
99,967.36,0.32959865,0.383093499,-0.0765648848,1.45698539,1.21058114,0.610404507,-0.26528735,-0.32298343599999996,-0.030292685599999997,-0.37513932899999997,0.050786405800000003,-0.42362061100000004,,30.78787878787879,0,L26_NIRS-2019-09-05_005_trial04.txt,248.0
100,968.6400000000001,0.359332699,0.395483129,-0.014796981919999999,1.50314415,1.21189197,0.5991050010000001,-0.25619069699999997,-0.318683853,-0.011777007159999998,-0.363008385,0.0572506238,-0.41866251099999996,,30.78787878787879,0,L26_NIRS-2019-09-05_005_trial04.txt,248.0
101,969.9199999999998,0.40799231599999997,0.40681820099999993,0.0480720018,1.53757257,1.21386972,0.557594123,-0.26389608,-0.33413306600000003,0.0028586126820000003,-0.35618930299999996,0.0578553163,-0.42023332199999996,,30.78787878787879,0,L26_NIRS-2019-09-05_005_trial04.txt,248.0
102,971.1999999999998,0.46470498099999996,0.420936458,0.0687360867,1.5457022999999999,1.2183041,0.51171583,-0.302585394,-0.366648043,-0.004593425997999999,-0.361515484,0.047244931500000004,-0.430861021,,30.78787878787879,0,L26_NIRS-2019-09-05_005_trial04.txt,248.0
103,972.4800000000001,0.564992281,0.43944662800000006,0.0787256298,1.5358359499999998,1.2464456000000002,0.5117459550000001,-0.33893193000000005,-0.401501616,-0.015117893400000002,-0.377214758,0.0333412642,-0.44800678299999996,,30.78787878787879,0,L26_NIRS-2019-09-05_005_trial04.txt,248.0
104,973.7599999999999,0.6567257009999999,0.448277957,0.09730988039999999,1.53478359,1.2884303400000001,0.549461201,-0.353466219,-0.42477046100000004,-0.016018397900000002,-0.397687401,0.0242168051,-0.460585629,,30.78787878787879,0,L26_NIRS-2019-09-05_005_trial04.txt,248.0
105,975.04,0.6814777379999999,0.4324933529999999,0.122861848,1.5536831699999998,1.32595241,0.5911824520000001,-0.338784771,-0.431404066,-0.008744411429999998,-0.41041792600000004,0.021588224,-0.46411676799999996,,30.78787878787879,0,L26_NIRS-2019-09-05_005_trial04.txt,248.0
106,976.32,0.599197832,0.376210614,0.133204909,1.5670778200000002,1.3250357500000003,0.600152708,-0.303193509,-0.422408352,0.004100233918,-0.41705619499999996,0.022021044599999998,-0.466793514,,30.78787878787879,0,L26_NIRS-2019-09-05_005_trial04.txt,248.0
107,977.6,0.466316183,0.30067560000000004,0.13629161299999998,1.5760937000000002,1.27485812,0.559245373,-0.25789645000000005,-0.41012774900000004,0.0216321697,-0.42228005399999996,0.021917885300000002,-0.46938397499999995,,30.78787878787879,0,L26_NIRS-2019-09-05_005_trial04.txt,248.0
108,978.8800000000001,0.371038882,0.260027776,0.15104542899999998,1.57316251,1.2052001,0.5014911439999999,-0.21707174300000004,-0.403773799,0.0329178529,-0.4202484490000001,0.0172494473,-0.47306620400000005,,30.78787878787879,0,L26_NIRS-2019-09-05_005_trial04.txt,248.0
109,980.1600000000001,0.3432984799999999,0.279128934,0.15647468800000003,1.5541920800000002,1.15604766,0.45457521500000003,-0.210615662,-0.407893595,0.025494852599999996,-0.414173743,0.0061527441690000005,-0.48032244299999993,,30.78787878787879,0,L26_NIRS-2019-09-05_005_trial04.txt,248.0
110,981.4399999999999,0.421692543,0.346892344,0.173268512,1.52201621,1.1678058100000002,0.45220481900000004,-0.2255989,-0.4219874900000001,0.01024983447,-0.411884022,-0.006283111408,-0.49461768500000003,,30.78787878787879,0,L26_NIRS-2019-09-05_005_trial04.txt,248.0
111,982.72,0.545341267,0.42074398999999996,0.19247317800000002,1.5067117,1.23521481,0.492305172,-0.261212775,-0.436407291,-0.006415104000999999,-0.4175409889999999,-0.0141982246,-0.509590512,,30.78787878787879,0,L26_NIRS-2019-09-05_005_trial04.txt,248.0
112,984.0,0.6668223059999999,0.46293552699999996,0.204918536,1.5203028,1.3193805600000001,0.5485980109999999,-0.29106228700000003,-0.44337247,-0.017289859100000003,-0.423231574,-0.0164132539,-0.520733799,,30.78787878787879,0,L26_NIRS-2019-09-05_005_trial04.txt,248.0
113,985.28,0.706487493,0.458968357,0.19258493799999996,1.54559311,1.3645128099999997,0.5763835210000001,-0.322397859,-0.44816572799999993,-0.0273651299,-0.4340608250000001,-0.0178787123,-0.532020724,,30.78787878787879,0,L26_NIRS-2019-09-05_005_trial04.txt,248.0
114,986.5600000000001,0.6574169409999999,0.411591046,0.158027421,1.5615989,1.3437395899999998,0.5500613659999999,-0.34524691300000004,-0.449343861,-0.037056309499999995,-0.444627877,-0.0198572845,-0.535001464,,30.78787878787879,0,L26_NIRS-2019-09-05_005_trial04.txt,248.0
115,987.8399999999999,0.5803347399999998,0.370594201,0.15088020200000002,1.5693294,1.29744675,0.516775255,-0.34388248800000004,-0.44341804199999996,-0.0408700136,-0.44591624600000007,-0.020262737,-0.526761545,,30.78787878787879,0,L26_NIRS-2019-09-05_005_trial04.txt,248.0
116,989.1199999999999,0.51464463,0.362332845,0.173578247,1.56685057,1.26801868,0.5126983840000001,-0.327409069,-0.43248128,-0.0402871316,-0.436406592,-0.019251297699999996,-0.51302239,,30.78787878787879,0,L26_NIRS-2019-09-05_005_trial04.txt,248.0
117,990.4,0.49508259,0.38398865199999993,0.21144941200000003,1.5441061399999998,1.2647760099999998,0.535200051,-0.305412034,-0.424567973,-0.0355896561,-0.428562189,-0.018777332900000006,-0.505846597,,30.78787878787879,0,L26_NIRS-2019-09-05_005_trial04.txt,248.0
118,991.68,0.4894052620000001,0.40122011499999993,0.21402763499999997,1.4985900400000003,1.2738541399999999,0.562031576,-0.29824668100000007,-0.42186292999999997,-0.034330633799999996,-0.420467542,-0.0195497425,-0.510192126,,30.78787878787879,0,L26_NIRS-2019-09-05_005_trial04.txt,248.0
119,992.96,0.5008289419999999,0.390284598,0.185551716,1.4438580999999997,1.2729513199999998,0.575118888,-0.29678150999999997,-0.42128181099999995,-0.0288979941,-0.41189776599999994,-0.021599932499999995,-0.524153505,,30.78787878787879,0,L26_NIRS-2019-09-05_005_trial04.txt,248.0
120,994.2400000000001,0.5192607280000001,0.36537327799999997,0.145274126,1.41253548,1.24955302,0.56492145,-0.305696186,-0.4218329310000001,-0.022096049699999995,-0.405811147,-0.026736819699999997,-0.5385201010000001,,30.78787878787879,0,L26_NIRS-2019-09-05_005_trial04.txt,248.0
121,995.5200000000001,0.5289441690000001,0.351134616,0.10832722000000002,1.4243691200000002,1.2183695499999998,0.54858975,-0.328314833,-0.42129476600000004,-0.021590141099999998,-0.39931478400000003,-0.030321556,-0.547828883,,30.78787878787879,0,L26_NIRS-2019-09-05_005_trial04.txt,248.0
122,996.8,0.550957144,0.361774194,0.11381775999999999,1.47830459,1.21679205,0.565851635,-0.347117408,-0.419602435,-0.019646459399999996,-0.38997706800000004,-0.027446287799999997,-0.54399264,,30.78787878787879,0,L26_NIRS-2019-09-05_005_trial04.txt,248.0
123,998.0799999999999,0.5417667020000001,0.388619444,0.139456017,1.5350349099999998,1.2431275900000003,0.598595924,-0.373674514,-0.41824872700000004,-0.0192231724,-0.38236551599999996,-0.0217676739,-0.539382215,,30.78787878787879,0,L26_NIRS-2019-09-05_005_trial04.txt,248.0
124,999.36,0.47993226699999997,0.418971887,0.0970681964,1.5199384800000002,1.28031209,0.604821703,-0.41171933699999996,-0.412781247,-0.0458452809,-0.39447193699999994,-0.0191145577,-0.548629815,,30.78787878787879,0,L26_NIRS-2019-09-05_005_trial04.txt,248.0
125,1000.6400000000001,0.4021710929999999,0.431824255,-0.031522251550000005,1.43389502,1.3142156200000001,0.574329396,-0.4469150730000001,-0.40798220900000004,-0.0953709106,-0.41452018700000004,-0.020922136700000003,-0.565470685,,30.78787878787879,0,L26_NIRS-2019-09-05_005_trial04.txt,248.0
126,1001.9199999999998,0.33926854399999995,0.417122272,-0.151645006,1.3514774199999997,1.3318454100000001,0.5360614560000001,-0.45091851800000005,-0.39575596299999993,-0.13197051399999998,-0.4310820099999999,-0.025036701,-0.584000445,,30.78787878787879,0,L26_NIRS-2019-09-05_005_trial04.txt,248.0
127,1003.1999999999998,0.332054698,0.40664843200000006,-0.18038989300000002,1.34984807,1.3509572600000002,0.530066409,-0.41033143799999994,-0.367950318,-0.14024791999999997,-0.43011458099999994,-0.0275776366,-0.590416214,,30.78787878787879,0,L26_NIRS-2019-09-05_005_trial04.txt,248.0
128,1004.4800000000001,0.364475743,0.4213638759999999,-0.09538968280000001,1.43130472,1.37948883,0.5567610380000001,-0.33882098,-0.337906424,-0.125371238,-0.41266589100000006,-0.0260381548,-0.585124593,,30.78787878787879,0,L26_NIRS-2019-09-05_005_trial04.txt,248.0
129,1005.7599999999999,0.3942483,0.4337594719999999,0.06800768078,1.5530235399999999,1.3963775800000002,0.579191118,-0.26176213000000004,-0.32446602699999993,-0.09376192890000001,-0.387010821,-0.023627757399999998,-0.5666700990000001,,30.78787878787879,0,L26_NIRS-2019-09-05_005_trial04.txt,248.0
130,1007.04,0.378279303,0.41963695300000003,0.22455998200000002,1.6296516500000002,1.36731084,0.559758971,-0.21520735000000002,-0.335528712,-0.061451662399999996,-0.362664299,-0.0266651358,-0.5519402720000001,,30.78787878787879,0,L26_NIRS-2019-09-05_005_trial04.txt,248.0
131,1008.32,0.315687534,0.406405498,0.24515511399999998,1.6033240600000003,1.3198284,0.50249586,-0.219155691,-0.353318654,-0.06986509569999999,-0.364622625,-0.0335420966,-0.5563879650000001,,30.78787878787879,0,L26_NIRS-2019-09-05_005_trial04.txt,248.0
132,1009.6,0.290962172,0.408345121,0.15465036699999998,1.5059866199999998,1.2936072399999998,0.4485693009999999,-0.240752543,-0.3710191159999999,-0.10366332219999999,-0.387625116,-0.0367884905,-0.568440369,,30.78787878787879,0,L26_NIRS-2019-09-05_005_trial04.txt,248.0
133,1010.8800000000001,0.31493153900000004,0.41863969,0.0766927613,1.4230234199999998,1.2869408000000002,0.423433188,-0.24571075500000003,-0.379841115,-0.120170424,-0.408538454,-0.037192467800000004,-0.580125859,,30.78787878787879,0,L26_NIRS-2019-09-05_005_trial04.txt,248.0
134,1012.1600000000001,0.35438332399999994,0.44061629,0.0634183839,1.4032310000000003,1.3015495600000002,0.4353787700000001,-0.234367305,-0.37031710799999995,-0.11283047799999998,-0.40812153799999995,-0.0335938014,-0.583252551,,30.78787878787879,0,L26_NIRS-2019-09-05_005_trial04.txt,248.0
135,1013.4399999999999,0.40631360600000005,0.475682747,0.134110783,1.45144632,1.3409062,0.47822077700000004,-0.215685021,-0.3495802,-0.08667380160000002,-0.395680511,-0.0237225148,-0.576638113,,30.78787878787879,0,L26_NIRS-2019-09-05_005_trial04.txt,248.0
136,1014.72,0.449881834,0.497610277,0.24428476500000001,1.5511737,1.3663394199999999,0.509729207,-0.20615719700000001,-0.333432016,-0.05491021600000001,-0.376684103,-0.012545125439999999,-0.5629072100000001,,30.78787878787879,0,L26_NIRS-2019-09-05_005_trial04.txt,248.0
137,1016.0,0.5043851160000001,0.49681753800000006,0.341035935,1.6348209099999997,1.3616330600000002,0.528456511,-0.21310796199999996,-0.33495214199999995,-0.028651686500000002,-0.358377392,-0.00543702422,-0.553130685,,30.78787878787879,0,L26_NIRS-2019-09-05_005_trial04.txt,248.0
138,1017.28,0.564913555,0.503191345,0.37067799300000004,1.6780245599999997,1.34573441,0.5596643259999999,-0.241218121,-0.349995202,-0.025793270299999997,-0.34903818200000003,-0.003143042100000001,-0.557540868,,30.78787878787879,0,L26_NIRS-2019-09-05_005_trial04.txt,248.0
139,1018.5600000000001,0.6210686940000001,0.536930035,0.352278233,1.6608206200000002,1.3492266099999997,0.6070222220000001,-0.268330484,-0.36967439900000004,-0.0408810191,-0.35300096400000003,-0.00457824468,-0.5734686800000001,,30.78787878787879,0,L26_NIRS-2019-09-05_005_trial04.txt,248.0
140,1019.8399999999999,0.6611775189999999,0.580920552,0.335636007,1.63642478,1.37268611,0.6562768370000001,-0.277605781,-0.389816528,-0.0579469055,-0.361649356,-0.013306319919999999,-0.598023347,,30.78787878787879,0,L26_NIRS-2019-09-05_005_trial04.txt,248.0
141,1021.1199999999999,0.66061339,0.6020160800000001,0.335511202,1.63004028,1.4033419999999999,0.6901724509999999,-0.274748356,-0.401551045,-0.0685399813,-0.36118037100000006,-0.0245125173,-0.626236407,,30.78787878787879,0,L26_NIRS-2019-09-05_005_trial04.txt,248.0
142,1022.4,0.6110396929999999,0.5936763270000001,0.33917954300000003,1.63918763,1.4410883700000001,0.6892334069999999,-0.27420411400000005,-0.397907832,-0.07355925140000001,-0.367410639,-0.03290192509999999,-0.654648981,,30.78787878787879,0,L26_NIRS-2019-09-05_005_trial04.txt,248.0
143,1023.68,0.5172178940000001,0.563048,0.31597393599999996,1.63807153,1.45838114,0.6531974600000001,-0.28916456199999996,-0.388983439,-0.0812464401,-0.379261174,-0.0373011245,-0.67294239,,30.78787878787879,0,L26_NIRS-2019-09-05_005_trial04.txt,248.0
144,1024.96,0.42503633500000004,0.530656023,0.26147730599999996,1.6075206599999998,1.4452231100000001,0.6000841269999999,-0.315368384,-0.385311732,-0.0897789457,-0.39916732,-0.038609742600000004,-0.6807024269999999,,30.78787878787879,0,L26_NIRS-2019-09-05_005_trial04.txt,248.0
145,1026.2400000000002,0.357737175,0.521725292,0.18654117299999998,1.5528476000000002,1.4078912200000002,0.5487692799999999,-0.34818121900000004,-0.388793996,-0.1038066316,-0.41910284600000003,-0.04051402089999999,-0.684615887,,30.78787878787879,0,L26_NIRS-2019-09-05_005_trial04.txt,248.0
146,1027.52,0.34384374100000004,0.548334225,0.129092411,1.4691974,1.3746922899999998,0.5072496620000001,-0.37140242300000004,-0.39559513199999996,-0.117341107,-0.42771608800000005,-0.0439624186,-0.683939968,,30.78787878787879,0,L26_NIRS-2019-09-05_005_trial04.txt,248.0
147,1028.8,0.360196984,0.589760523,0.11158768699999999,1.41802826,1.3692321299999999,0.49796587700000006,-0.399188644,-0.40282148199999995,-0.12841118899999998,-0.42505185599999995,-0.0496549239,-0.6883071770000001,,30.78787878787879,0,L26_NIRS-2019-09-05_005_trial04.txt,248.0
148,1030.08,0.40355805299999997,0.6010975209999999,0.127648818,1.44882391,1.3755264100000002,0.528690636,-0.42582378699999995,-0.41029770499999996,-0.13256948799999999,-0.39734521999999994,-0.053642532799999997,-0.6935037,,30.78787878787879,0,L26_NIRS-2019-09-05_005_trial04.txt,248.0
149,1031.3600000000001,0.431224766,0.5777428849999999,0.160193388,1.5290368600000002,1.37895776,0.558118831,-0.44806656600000005,-0.41352464799999994,-0.129257287,-0.36245670499999993,-0.0555798235,-0.6973158380000001,,30.78787878787879,0,L26_NIRS-2019-09-05_005_trial04.txt,248.0
150,1032.64,0.43424876700000004,0.5411804980000001,0.181103058,1.60351181,1.36615473,0.5734453199999999,-0.460223795,-0.42097491200000003,-0.12227056600000004,-0.334508086,-0.0559476228,-0.6923846570000001,,30.78787878787879,0,L26_NIRS-2019-09-05_005_trial04.txt,248.0
151,1033.92,0.39979088900000004,0.49224932200000004,0.17294597099999998,1.62932956,1.34838875,0.595308863,-0.45904029,-0.43411501,-0.11449017499999999,-0.32303444,-0.055472128999999995,-0.683489476,,30.78787878787879,0,L26_NIRS-2019-09-05_005_trial04.txt,248.0
152,1035.1999999999998,0.33175419100000003,0.456957824,0.132215968,1.6092834100000002,1.3679868700000002,0.642265298,-0.44596231699999994,-0.437297361,-0.116200546,-0.336221966,-0.0551159101,-0.679090517,,30.78787878787879,0,L26_NIRS-2019-09-05_005_trial04.txt,248.0
153,1036.48,0.28229684499999996,0.442038528,0.10669463900000001,1.5589023499999999,1.42823224,0.7094878280000001,-0.41946499600000003,-0.428379276,-0.11819321199999999,-0.35438385499999997,-0.054610597999999996,-0.679789474,,30.78787878787879,0,L26_NIRS-2019-09-05_005_trial04.txt,248.0
154,1037.76,0.26186630499999997,0.44655653900000003,0.11328091299999998,1.53003348,1.5061314300000002,0.7934185970000002,-0.396687469,-0.40998120799999993,-0.117242127,-0.368958738,-0.053967501800000005,-0.6881575289999999,,30.78787878787879,0,L26_NIRS-2019-09-05_005_trial04.txt,248.0
155,1039.04,0.26992527600000005,0.45306668299999997,0.139522843,1.5550836,1.5505097700000001,0.8604801889999999,-0.3810643590000001,-0.3916969229999999,-0.112799205,-0.36451387900000004,-0.05457136819999999,-0.69877852,,30.78787878787879,0,L26_NIRS-2019-09-05_005_trial04.txt,248.0
156,1040.3200000000002,0.31423945,0.47444891799999994,0.199387445,1.6224571500000002,1.54235696,0.8839189729999999,-0.36897552000000006,-0.376711231,-0.10089810699999999,-0.351402821,-0.057414056899999996,-0.7064170519999998,,30.78787878787879,0,L26_NIRS-2019-09-05_005_trial04.txt,248.0
157,1041.6,0.38380325099999996,0.515821513,0.270761735,1.6900320100000001,1.4925012999999998,0.8484058780000001,-0.365333021,-0.37532055100000006,-0.08964058989999998,-0.330589549,-0.0627847141,-0.7106424980000001,,30.78787878787879,0,L26_NIRS-2019-09-05_005_trial04.txt,248.0
158,1042.88,0.45241948600000004,0.551575978,0.317835967,1.7084591199999999,1.44869062,0.7910893050000001,-0.376009695,-0.390906434,-0.08640207529999999,-0.313700665,-0.0713450655,-0.717827931,,30.78787878787879,0,L26_NIRS-2019-09-05_005_trial04.txt,248.0
159,1044.1600000000003,0.471029435,0.5651547090000001,0.286248821,1.6631587800000003,1.44197898,0.732675465,-0.405123914,-0.41144985199999995,-0.1034748182,-0.321203096,-0.0821489594,-0.731522513,,30.78787878787879,0,L26_NIRS-2019-09-05_005_trial04.txt,248.0
160,1045.44,0.473889291,0.547929271,0.224596734,1.6099966900000002,1.45937231,0.705991107,-0.42984501999999997,-0.4301022640000001,-0.125082687,-0.33940781099999995,-0.0913525761,-0.745005909,,30.78787878787879,0,L26_NIRS-2019-09-05_005_trial04.txt,248.0
161,1046.72,0.454599403,0.527348601,0.17499709900000002,1.6027745800000002,1.4827247999999997,0.709978534,-0.4411158540000001,-0.432234538,-0.13986989600000002,-0.3550792420000001,-0.0957135905,-0.755691358,,30.78787878787879,0,L26_NIRS-2019-09-05_005_trial04.txt,248.0
162,1048.0,0.410418294,0.5228788129999999,0.16874483099999998,1.63145916,1.4897049199999999,0.7052083829999999,-0.436914845,-0.42264807800000004,-0.143747329,-0.36713878599999994,-0.09825610230000001,-0.766428793,,30.78787878787879,0,L26_NIRS-2019-09-05_005_trial04.txt,248.0
163,1049.28,0.31959533799999995,0.528992465,0.185420622,1.6645070399999997,1.46027803,0.667907365,-0.43150537400000005,-0.407619859,-0.14507052800000003,-0.379162243,-0.101724116,-0.780992036,,30.78787878787879,0,L26_NIRS-2019-09-05_005_trial04.txt,248.0
164,1050.56,0.227792468,0.5343465459999999,0.21161423199999999,1.65333395,1.4159184100000002,0.614482077,-0.424813275,-0.3968228770000001,-0.14511343,-0.389277077,-0.102268684,-0.793245896,,30.78787878787879,0,L26_NIRS-2019-09-05_005_trial04.txt,248.0
165,1051.84,0.162362638,0.5446006110000001,0.202935041,1.6120101900000001,1.40589948,0.591225398,-0.435758137,-0.396027381,-0.15381625699999996,-0.39606156,-0.102170731,-0.8072222760000001,,30.78787878787879,0,L26_NIRS-2019-09-05_005_trial04.txt,248.0
166,1053.12,0.170919558,0.53979197,0.151320031,1.56461695,1.42017034,0.6138773470000001,-0.44362522899999995,-0.412596445,-0.166027151,-0.399010473,-0.10214131200000001,-0.815931701,,30.78787878787879,0,L26_NIRS-2019-09-05_005_trial04.txt,248.0
167,1054.4,0.236712261,0.5219236059999999,0.09429236529999999,1.5220034999999998,1.42989108,0.666706118,-0.443155447,-0.437829892,-0.1686703,-0.391173184,-0.102839129,-0.816425278,,30.78787878787879,0,L26_NIRS-2019-09-05_005_trial04.txt,248.0
168,1055.68,0.28719464400000005,0.509249439,0.06988331030000001,1.51023423,1.4133665399999997,0.711480946,-0.43488523300000004,-0.45703560099999996,-0.160501093,-0.36943845,-0.10428530600000001,-0.809595922,,30.78787878787879,0,L26_NIRS-2019-09-05_005_trial04.txt,248.0
169,1056.96,0.30535865599999995,0.505285285,0.11323205539999999,1.53646225,1.3753166499999998,0.7262005979999999,-0.41536851299999994,-0.475072339,-0.143201018,-0.345077678,-0.110451165,-0.796714548,,30.78787878787879,0,L26_NIRS-2019-09-05_005_trial04.txt,248.0
170,1058.2400000000002,0.28391449,0.5113522890000001,0.187400982,1.56746541,1.3286175999999998,0.699402585,-0.40468619200000006,-0.48838177099999996,-0.12800872599999996,-0.33748340899999996,-0.11955627900000002,-0.7884296940000002,,30.78787878787879,0,L26_NIRS-2019-09-05_005_trial04.txt,248.0
171,1059.52,0.21434164400000003,0.5307427769999999,0.206297626,1.56468878,1.29538796,0.6166047110000001,-0.428176784,-0.48980026299999996,-0.14121703400000002,-0.34569017999999996,-0.126299107,-0.7974138129999999,,30.78787878787879,0,L26_NIRS-2019-09-05_005_trial04.txt,248.0
172,1060.8,0.161695612,0.5676801629999999,0.14369148830000003,1.56925421,1.3082973699999998,0.5621142870000001,-0.482716588,-0.48079212400000004,-0.180885613,-0.356868417,-0.125789749,-0.818591601,,30.78787878787879,0,L26_NIRS-2019-09-05_005_trial04.txt,248.0
173,1062.08,0.165400799,0.5998275119999998,0.0262254672,1.57139023,1.3417913000000001,0.553411483,-0.5335483110000001,-0.46137211800000005,-0.22183715299999998,-0.35835163299999995,-0.115578497,-0.83747442,,30.78787878787879,0,L26_NIRS-2019-09-05_005_trial04.txt,248.0
174,1063.3600000000001,0.18159424000000002,0.610829062,-0.088298983,1.52502738,1.3650071,0.5470319289999999,-0.5622183730000001,-0.42986314600000003,-0.23630825500000002,-0.35060949499999994,-0.09918505829999999,-0.8439398549999998,,30.78787878787879,0,L26_NIRS-2019-09-05_005_trial04.txt,248.0
175,1064.64,0.176645454,0.595462849,-0.15910033,1.43868744,1.35818422,0.524381676,-0.5579676980000001,-0.394250315,-0.21955696400000005,-0.338951715,-0.08214667070000001,-0.8361900709999999,,30.78787878787879,0,L26_NIRS-2019-09-05_005_trial04.txt,248.0
176,1065.92,0.171062305,0.5529066359999999,-0.142548415,1.3579880699999998,1.3246737899999999,0.49687172099999993,-0.5169734909999999,-0.370352773,-0.177188803,-0.33025878699999994,-0.0708989694,-0.8107764759999998,,30.78787878787879,0,L26_NIRS-2019-09-05_005_trial04.txt,248.0
177,1067.1999999999998,0.22019141800000003,0.5156311849999999,-0.04539026320000001,1.31700107,1.29239581,0.48757344199999997,-0.45930741499999994,-0.359554825,-0.123746057,-0.33422293399999997,-0.06417152599999999,-0.777266131,,30.78787878787879,0,L26_NIRS-2019-09-05_005_trial04.txt,248.0
178,1068.48,0.27832183699999996,0.5069879049999999,0.033683276289999994,1.34129013,1.27392767,0.4694659990000001,-0.431853541,-0.358190201,-0.10181101050000001,-0.33266227,-0.0622763265,-0.7517285490000001,,30.78787878787879,0,L26_NIRS-2019-09-05_005_trial04.txt,248.0
179,1069.76,0.39130220200000004,0.5314848329999999,0.11211089999999999,1.4294632600000001,1.2852263499999999,0.496756289,-0.417066848,-0.372350652,-0.0951227682,-0.31692314,-0.06246117560000001,-0.7294393480000001,,30.78787878787879,0,L26_NIRS-2019-09-05_005_trial04.txt,248.0
180,1071.04,0.463879285,0.580391839,0.150613774,1.48743201,1.32533977,0.529334942,-0.42582565699999997,-0.387292341,-0.10559174519999999,-0.304139755,-0.0648164427,-0.714535741,,30.78787878787879,0,L26_NIRS-2019-09-05_005_trial04.txt,248.0
181,1072.3200000000002,0.47831472799999997,0.610364444,0.15175250499999998,1.5131862999999999,1.3700241899999999,0.549492898,-0.432392664,-0.39332708399999994,-0.12119982199999998,-0.289720623,-0.0681935494,-0.697250834,,30.78787878787879,0,L26_NIRS-2019-09-05_005_trial04.txt,248.0
182,1073.6,0.452034328,0.594698889,0.1165013774,1.53514806,1.39340052,0.5652365500000001,-0.417796785,-0.38758695200000004,-0.133680843,-0.27743026400000004,-0.0677612214,-0.6733393449999999,,30.78787878787879,0,L26_NIRS-2019-09-05_005_trial04.txt,248.0
183,1074.88,0.41264897899999997,0.533394275,0.06860334869999998,1.51654984,1.37413733,0.561395148,-0.38013856900000004,-0.373085799,-0.13241584099999998,-0.27611896700000005,-0.061207860299999986,-0.6430905800000001,,30.78787878787879,0,L26_NIRS-2019-09-05_005_trial04.txt,248.0
184,1076.1600000000003,0.37660496499999996,0.45904274199999995,0.018130525880000005,1.49462827,1.32772524,0.541795988,-0.333676532,-0.35301556500000003,-0.125248528,-0.28531599500000004,-0.048256236099999995,-0.614204654,,30.78787878787879,0,L26_NIRS-2019-09-05_005_trial04.txt,248.0
185,1077.44,0.381036873,0.392880019,-0.0184991242,1.4935021499999999,1.2604014299999997,0.5237439010000001,-0.283269107,-0.341884778,-0.112737833,-0.282798373,-0.0321210356,-0.578002913,,30.78787878787879,0,L26_NIRS-2019-09-05_005_trial04.txt,248.0
186,1078.72,0.446072753,0.37838782299999996,0.025410119196299995,1.4974620400000003,1.2248127699999998,0.5475894039999999,-0.24013798199999997,-0.347422842,-0.08092179029999999,-0.27072969199999997,-0.0170845558,-0.544713584,,30.78787878787879,0,L26_NIRS-2019-09-05_005_trial04.txt,248.0
187,1080.0,0.5223817009999999,0.46007920700000005,0.1333298944,1.5284924500000001,1.30358494,0.673569436,-0.23712436100000006,-0.355235818,-0.0558350962,-0.264578236,-0.01036110751,-0.537355011,,30.78787878787879,0,L26_NIRS-2019-09-05_005_trial04.txt,248.0
188,1081.28,0.6444263290000001,0.6014529040000001,0.302385357,1.6662121499999998,1.5027420599999999,0.9241990309999999,-0.253489618,-0.3617803030000001,-0.043585746,-0.25278504599999996,-0.015815554699999998,-0.5552123959999999,,30.78787878787879,0,L26_NIRS-2019-09-05_005_trial04.txt,248.0
189,1082.56,0.8155269689999999,0.7500033590000001,0.48916591900000006,1.9141102799999998,1.77352146,1.2754073199999998,-0.263897214,-0.35597124300000005,-0.042992301600000005,-0.23519502500000003,-0.0297694939,-0.5917027690000001,,30.78787878787879,0,L26_NIRS-2019-09-05_005_trial04.txt,248.0
190,1083.84,0.9832653870000001,0.862366067,0.660383905,2.15960338,2.02963862,1.61220586,-0.262670593,-0.335434332,-0.039004836599999995,-0.231504685,-0.0463950894,-0.640661921,,30.78787878787879,0,L26_NIRS-2019-09-05_005_trial04.txt,248.0
191,1085.12,1.0583467800000002,0.8993146380000001,0.763253186,2.30631745,2.17710384,1.78942534,-0.256571554,-0.311490073,-0.034929543800000004,-0.24308064499999998,-0.0635960519,-0.69223757,,30.78787878787879,0,L26_NIRS-2019-09-05_005_trial04.txt,248.0
192,1086.4,1.007730345,0.8337113080000002,0.760786885,2.28734331,2.14784281,1.73532439,-0.24601278299999998,-0.296810387,-0.0348502357,-0.2621174600000001,-0.07980377620000001,-0.7176634519999999,,30.78787878787879,0,L26_NIRS-2019-09-05_005_trial04.txt,248.0
193,1087.6160000000002,0.8627687066666667,0.6994025988888889,0.6506590477777778,2.1221904,1.9772929555555558,1.491734922222222,-0.24224226444444444,-0.29652712444444446,-0.04376811555555556,-0.2894681477777778,-0.09026273466666666,-0.7184763455555555,,30.78787878787879,0,L26_NIRS-2019-09-05_005_trial04.txt,248.0
