,time,S3_D4_HbO,S3_D3_HbO,S2_D3_HbO,S2_D2_HbO,S1_D2_HbO,S1_D1_HbO,S3_D4_HbR,S3_D3_HbR,S2_D3_HbR,S2_D2_HbR,S1_D2_HbR,S1_D1_HbR,Var14,score,labelnum,filename,total_time
0,532.6719999999999,0.26101038499999996,-0.441929404,-0.6346592329999999,-0.686195375,-0.08001033430000001,-0.1074330845,0.31031292,0.029232434399999997,0.09699149700000001,0.017142085600000002,0.018967913499999996,-0.018834901620000004,,214.63636363636363,1,L26_NIRS-2019-09-14_001_trial06.txt,49.0
1,533.952,0.430415632,-0.32281199899999996,-0.449650621,-0.4971355249999999,0.016914830999999998,0.00959756582,0.295680493,0.009891891419999998,0.0919985441,0.023128157399999995,0.026047729600000003,-0.0445137281,,214.63636363636363,1,L26_NIRS-2019-09-14_001_trial06.txt,49.0
2,535.232,0.5075141320000001,-0.22978695600000001,-0.30605502,-0.319241353,0.08537411619999999,0.0438259164,0.271035571,-0.01310316378,0.0848638464,0.027459720799999997,0.0316935357,-0.0654589181,,214.63636363636363,1,L26_NIRS-2019-09-14_001_trial06.txt,49.0
3,536.512,0.490743088,-0.166670277,-0.236487026,-0.185236453,0.11723955099999998,0.010212333609999997,0.233747798,-0.030566298499999995,0.0662530881,0.029137712600000004,0.0324384132,-0.0813747249,,214.63636363636363,1,L26_NIRS-2019-09-14_001_trial06.txt,49.0
4,537.792,0.43287749699999994,-0.13936108399999997,-0.23177555100000005,-0.135004722,0.1087689117,-0.057371194,0.206174804,-0.038062234699999996,0.041682777600000005,0.0278839081,0.027645322300000004,-0.0873455306,,214.63636363636363,1,L26_NIRS-2019-09-14_001_trial06.txt,49.0
5,539.072,0.356999136,-0.14824773399999996,-0.267546446,-0.169649095,0.0636324163,-0.162819552,0.201047878,-0.033770454,0.013109356119999999,0.022126593700000002,0.0186796567,-0.08297883489999999,,214.63636363636363,1,L26_NIRS-2019-09-14_001_trial06.txt,49.0
6,540.352,0.26119989199999993,-0.185513066,-0.30595477299999996,-0.262254871,-0.0023364863980000006,-0.32414265400000003,0.20815295100000003,-0.019622244929999998,-0.00432762784,0.016409111,0.00955004642,-0.0774580984,,214.63636363636363,1,L26_NIRS-2019-09-14_001_trial06.txt,49.0
7,541.632,0.13321930689999997,-0.242524996,-0.293047337,-0.34763927000000006,-0.05489058210000001,-0.428903055,0.205969341,0.004595845193,0.0050361077673,0.0172939836,0.018647066099999998,-0.026072484729999994,,214.63636363636363,1,L26_NIRS-2019-09-14_001_trial06.txt,49.0
8,542.912,0.0540704087,-0.279963516,-0.198488844,-0.353483608,-0.0609859166,-0.43319601599999996,0.20896164,0.025968866500000003,0.0438131435,0.0246288751,0.042072775300000004,0.0448070213,,214.63636363636363,1,L26_NIRS-2019-09-14_001_trial06.txt,49.0
9,544.192,0.021063341290000002,-0.287773353,-0.05860013111000001,-0.27215690100000006,-0.012065701460000001,-0.3295440439999999,0.21106044099999996,0.0483928376,0.0965797419,0.0400959774,0.0721386442,0.114154314,,214.63636363636363,1,L26_NIRS-2019-09-14_001_trial06.txt,49.0
10,545.472,0.0837214203,-0.25726148699999996,0.0993246287,-0.13992753330000002,0.0725696557,-0.14397304110000003,0.22495899800000002,0.07039523160000001,0.148447942,0.062292631499999994,0.10326906949999999,0.172380624,,214.63636363636363,1,L26_NIRS-2019-09-14_001_trial06.txt,49.0
11,546.7519999999998,0.214690324,-0.20676314099999998,0.27065122599999997,-0.020779864210000006,0.148793509,0.043642979,0.24552981000000001,0.08784861669999999,0.19088895899999997,0.081406167,0.12716925299999998,0.20097634099999998,,214.63636363636363,1,L26_NIRS-2019-09-14_001_trial06.txt,49.0
12,548.0319999999999,0.38935429799999993,-0.15841713000000002,0.42384091999999995,0.0555326989,0.193639796,0.169176894,0.26868705700000006,0.10332714410000002,0.21157520000000002,0.09053328029999999,0.13951808899999998,0.19460903700000004,,214.63636363636363,1,L26_NIRS-2019-09-14_001_trial06.txt,49.0
13,549.312,0.5316694790000001,-0.137801847,0.514440507,0.0672961727,0.192245956,0.18339206400000002,0.280321133,0.11771269899999999,0.21766435099999998,0.0898310186,0.140437685,0.154833396,,214.63636363636363,1,L26_NIRS-2019-09-14_001_trial06.txt,49.0
14,550.5919999999999,0.6027775079999999,-0.158807596,0.532172094,0.02135802552,0.165244695,0.19476199,0.28652124199999995,0.137747173,0.224524093,0.0862565585,0.14801883,0.15253739400000002,,214.63636363636363,1,L26_NIRS-2019-09-14_001_trial06.txt,49.0
15,551.872,0.5825533450000001,-0.215490811,0.444283523,-0.0634214344,0.12468059900000002,0.151492967,0.2829564889999999,0.155759682,0.22896112899999999,0.08427631970000002,0.154067454,0.15052790100000002,,214.63636363636363,1,L26_NIRS-2019-09-14_001_trial06.txt,49.0
16,553.152,0.435994716,-0.319092859,0.27054811700000003,-0.16545089500000004,0.08081425579999998,0.055091767,0.26398933,0.172311885,0.23367334300000006,0.09225635100000001,0.15464864,0.14788263499999998,,214.63636363636363,1,L26_NIRS-2019-09-14_001_trial06.txt,49.0
17,554.432,0.243870343,-0.43277366000000006,0.0891932757,-0.25413440200000004,0.0526834956,-0.03797882823,0.24456667200000007,0.188801245,0.24496907899999995,0.10935235299999999,0.15426918,0.162644671,,214.63636363636363,1,L26_NIRS-2019-09-14_001_trial06.txt,49.0
18,555.7119999999999,0.09427935310000002,-0.49865853499999996,0.014014177549999998,-0.278544048,0.061063556500000005,-0.0940940428,0.22401831099999997,0.196382937,0.270245462,0.125650282,0.149351912,0.175407945,,214.63636363636363,1,L26_NIRS-2019-09-14_001_trial06.txt,49.0
19,556.992,0.043170057899999996,-0.49672363300000005,0.061989681100000006,-0.21471054399999998,0.1096738336,-0.08082503280000002,0.20443656799999999,0.192680586,0.296009384,0.131780523,0.137745454,0.174379255,,214.63636363636363,1,L26_NIRS-2019-09-14_001_trial06.txt,49.0
20,558.272,0.13298090299999998,-0.414377337,0.21380518199999998,-0.07503354822000001,0.19091495200000003,0.03570839631,0.19754799100000003,0.17702805799999996,0.314064735,0.123010113,0.12131952900000001,0.16048561700000002,,214.63636363636363,1,L26_NIRS-2019-09-14_001_trial06.txt,49.0
21,559.5519999999999,0.33622775200000005,-0.27651535899999996,0.404884032,0.095032238,0.29042659,0.24896590200000004,0.2114827,0.15230803899999998,0.317873338,0.09986006029999998,0.10805958500000001,0.14532159,,214.63636363636363,1,L26_NIRS-2019-09-14_001_trial06.txt,49.0
22,560.832,0.588200149,-0.1260853601,0.5575864709999999,0.23976650800000004,0.378095468,0.461035531,0.230618654,0.11744191649999998,0.3024952449999999,0.06743621899999999,0.09766308580000001,0.125252388,,214.63636363636363,1,L26_NIRS-2019-09-14_001_trial06.txt,49.0
23,562.1120000000001,0.779441224,-0.014523573409999995,0.6463250380000001,0.332392485,0.42708633799999995,0.59518812,0.22929881199999996,0.0755243977,0.27415371,0.0346281357,0.09019480159999999,0.10573708600000001,,214.63636363636363,1,L26_NIRS-2019-09-14_001_trial06.txt,49.0
24,563.392,0.8920180870000001,0.039497543499999996,0.695534136,0.38509770899999995,0.44820008600000005,0.673875055,0.22253374399999998,0.044370826999999995,0.24915218700000002,0.006885692933,0.09140383640000001,0.10180258199999999,,214.63636363636363,1,L26_NIRS-2019-09-14_001_trial06.txt,49.0
25,564.6719999999999,0.9262091219999998,0.0397065545,0.7154226799999999,0.40794764800000005,0.455386296,0.7058068239999999,0.21943675099999999,0.033369932199999994,0.235020913,-0.008871174350000002,0.10078841539999998,0.110466617,,214.63636363636363,1,L26_NIRS-2019-09-14_001_trial06.txt,49.0
26,565.952,0.847425473,0.004196648039999999,0.7024470669999999,0.41318392,0.44877223199999994,0.6838710339999999,0.19792023800000003,0.037647726299999996,0.22137231799999996,-0.01036272517,0.11262666800000001,0.11830346300000001,,214.63636363636363,1,L26_NIRS-2019-09-14_001_trial06.txt,49.0
27,567.232,0.7151547380000001,-0.0347923988,0.6626154750000001,0.39732859400000003,0.4223761100000001,0.620274139,0.165787233,0.0433511648,0.207141916,-0.00010126358799999995,0.12273627299999998,0.120034566,,214.63636363636363,1,L26_NIRS-2019-09-14_001_trial06.txt,49.0
28,568.512,0.5699679379999999,-0.0727408141,0.604269834,0.356899719,0.3726195120000001,0.5124248560000001,0.128425332,0.048505027299999996,0.194364287,0.01727247592,0.132564536,0.115349127,,214.63636363636363,1,L26_NIRS-2019-09-14_001_trial06.txt,49.0
29,569.792,0.44694369599999995,-0.1079826188,0.519360729,0.282665182,0.29324337600000006,0.347950577,0.09416853719999999,0.05067502060000001,0.17710171700000002,0.034129699299999997,0.141270641,0.11082066000000002,,214.63636363636363,1,L26_NIRS-2019-09-14_001_trial06.txt,49.0
30,571.072,0.36762782699999996,-0.118826448,0.43593639900000003,0.209035145,0.21485144199999998,0.173094404,0.06767372320000001,0.047120208000000004,0.15957301299999999,0.047635118899999995,0.148669431,0.112167163,,214.63636363636363,1,L26_NIRS-2019-09-14_001_trial06.txt,49.0
31,572.352,0.327027528,-0.09982549649999999,0.40159887899999996,0.189139425,0.18017953599999997,0.044171359400000006,0.05354975809999999,0.041477771600000005,0.149778393,0.0590413286,0.154090191,0.11456273700000001,,214.63636363636363,1,L26_NIRS-2019-09-14_001_trial06.txt,49.0
32,573.632,0.30909469500000003,-0.06681130630000001,0.40596586500000004,0.217184716,0.189528599,-0.01553433621,0.0581246017,0.04091821599999999,0.147187154,0.06940406140000002,0.156904336,0.12689562000000001,,214.63636363636363,1,L26_NIRS-2019-09-14_001_trial06.txt,49.0
33,574.912,0.30087272600000003,-0.01953221989,0.428125196,0.272162104,0.21797822400000003,-0.036710027,0.06395791880000001,0.0389551115,0.145754268,0.07789685219999999,0.15538431,0.140642485,,214.63636363636363,1,L26_NIRS-2019-09-14_001_trial06.txt,49.0
34,576.192,0.268203497,-0.00808355902,0.42396453199999995,0.302171847,0.21291544299999998,-0.0759291153,0.064450471,0.0357741834,0.143996125,0.08455052110000001,0.147792974,0.14264978700000003,,214.63636363636363,1,L26_NIRS-2019-09-14_001_trial06.txt,49.0
35,577.472,0.225355512,-0.053872978,0.38899332200000003,0.26789475599999996,0.157177133,-0.152972103,0.0713423339,0.0402468614,0.148489293,0.08925753119999999,0.13961157,0.13305732000000003,,214.63636363636363,1,L26_NIRS-2019-09-14_001_trial06.txt,49.0
36,578.7519999999998,0.18543633000000004,-0.141721721,0.328351788,0.165113997,0.07255300170000002,-0.222270274,0.08444495119999999,0.0666033443,0.15830214199999998,0.09403747679999999,0.143126116,0.133169086,,214.63636363636363,1,L26_NIRS-2019-09-14_001_trial06.txt,49.0
37,580.0319999999999,0.16389632599999998,-0.21788874800000002,0.249638556,0.04790574408,0.0038862160370000016,-0.25923984200000005,0.10923593270000001,0.1078558963,0.161871206,0.09546181290000001,0.15020018,0.13432998,,214.63636363636363,1,L26_NIRS-2019-09-14_001_trial06.txt,49.0
38,580.8639999999999,0.1818350266666667,-0.26052674,0.17905198999999997,-0.033761941000000004,-0.030442154333333332,-0.28721278333333333,0.14781955333333333,0.13268303,0.16376553666666668,0.09285741366666667,0.15012048999999997,0.12693991,,214.63636363636363,1,L26_NIRS-2019-09-14_001_trial06.txt,49.0
