,time,S3_D4_HbO,S3_D3_HbO,S2_D3_HbO,S2_D2_HbO,S1_D2_HbO,S1_D1_HbO,S3_D4_HbR,S3_D3_HbR,S2_D3_HbR,S2_D2_HbR,S1_D2_HbR,S1_D1_HbR,Var14,score,labelnum,filename,total_time
0,1077.568,18.7306586,7.57461936,-0.188367349,0.26877186300000006,0.217644671,0.169581607,4.34905999,3.4058866499999993,-0.25438387700000004,-0.25575984100000004,-0.13914208699999997,-0.25920539800000003,,202.75757575757575,1,L26_NIRS-2019-09-07_005_trial09.txt,73.0
1,1078.848,18.8017173,7.61070505,-0.131691121,0.28290784,0.24273011800000002,0.185496629,4.41232738,3.4420372500000007,-0.240225316,-0.24367153400000002,-0.130806822,-0.23382233599999996,,202.75757575757575,1,L26_NIRS-2019-09-07_005_trial09.txt,73.0
2,1080.1280000000002,18.746425999999996,7.610497780000001,-0.11221722499999998,0.26792764900000005,0.269771976,0.22521104100000003,4.42167577,3.4654736400000004,-0.25343380200000004,-0.247393138,-0.127367013,-0.21485909900000003,,202.75757575757575,1,L26_NIRS-2019-09-07_005_trial09.txt,73.0
3,1081.408,18.5870349,7.603538189999999,-0.07576126799999999,0.252316172,0.28451345699999997,0.280875059,4.36473681,3.48143405,-0.275122911,-0.26814978300000003,-0.14167758400000002,-0.205108112,,202.75757575757575,1,L26_NIRS-2019-09-07_005_trial09.txt,73.0
4,1082.688,18.427706999999998,7.636318130000001,0.01976402571,0.28359341099999996,0.29664173299999996,0.322200513,4.26950456,3.4846851,-0.29408051599999996,-0.310114748,-0.17964311500000002,-0.204014826,,202.75757575757575,1,L26_NIRS-2019-09-07_005_trial09.txt,73.0
5,1083.9679999999998,18.33827,7.7053994,0.13741327059999997,0.34534108999999996,0.308253562,0.313875729,4.172034309999999,3.46446721,-0.31588159400000004,-0.37397294000000003,-0.23465561699999998,-0.20694895,,202.75757575757575,1,L26_NIRS-2019-09-07_005_trial09.txt,73.0
6,1085.248,18.268351000000003,7.774483000000001,0.21658685600000002,0.401745835,0.330860074,0.2861210470000001,4.084741319999999,3.4337443999999997,-0.346567644,-0.43854995799999996,-0.28778233799999997,-0.20719224900000005,,202.75757575757575,1,L26_NIRS-2019-09-07_005_trial09.txt,73.0
7,1086.528,18.225983000000003,7.79687844,0.23470482499999998,0.428460997,0.36976295200000003,0.28677279499999997,4.03972272,3.40701736,-0.38299144499999993,-0.4787220019999999,-0.323776013,-0.205190188,,202.75757575757575,1,L26_NIRS-2019-09-07_005_trial09.txt,73.0
8,1087.808,18.214549400000003,7.7693065699999995,0.20591330000000005,0.454314619,0.430572129,0.31414226900000003,4.054260510000001,3.4018711699999997,-0.42027659100000003,-0.483377453,-0.33753210299999997,-0.204134285,,202.75757575757575,1,L26_NIRS-2019-09-07_005_trial09.txt,73.0
9,1089.0880000000002,18.2359422,7.7138807400000005,0.16288925799999998,0.486699627,0.503639027,0.352921632,4.1113193599999995,3.41029779,-0.456093765,-0.47226675700000004,-0.33855852499999994,-0.20049481600000002,,202.75757575757575,1,L26_NIRS-2019-09-07_005_trial09.txt,73.0
10,1090.368,18.230977499999998,7.679334610000001,0.16576391000000001,0.506743908,0.547371363,0.376192166,4.1458859100000005,3.4223271999999993,-0.485936961,-0.47608048,-0.34788030999999997,-0.194042893,,202.75757575757575,1,L26_NIRS-2019-09-07_005_trial09.txt,73.0
11,1091.648,18.263506999999997,7.7361784600000005,0.256441113,0.574847765,0.570949773,0.373462012,4.153469369999999,3.4209901700000005,-0.508674938,-0.499852171,-0.37716038900000004,-0.191966117,,202.75757575757575,1,L26_NIRS-2019-09-07_005_trial09.txt,73.0
12,1092.9280000000003,18.3212404,7.856908229999999,0.35944210900000007,0.645498693,0.585590734,0.338361152,4.1247361300000005,3.38883473,-0.538622994,-0.5509006439999999,-0.426420344,-0.204126743,,202.75757575757575,1,L26_NIRS-2019-09-07_005_trial09.txt,73.0
13,1094.208,18.389185599999998,7.982670030000001,0.41508142900000006,0.69289885,0.624323459,0.324479206,4.074738379999999,3.3328481700000006,-0.572928722,-0.6098982380000001,-0.485420233,-0.233201847,,202.75757575757575,1,L26_NIRS-2019-09-07_005_trial09.txt,73.0
14,1095.488,18.4182156,8.043889590000001,0.38631744599999995,0.683850791,0.669162521,0.332993564,4.01851414,3.2793392199999998,-0.6103680490000001,-0.65388908,-0.540093474,-0.271378774,,202.75757575757575,1,L26_NIRS-2019-09-07_005_trial09.txt,73.0
15,1096.768,18.4226216,8.03418785,0.306115665,0.651117253,0.712689758,0.3383691079999999,3.98131167,3.25550808,-0.640911752,-0.6702815369999999,-0.573727748,-0.310763974,,202.75757575757575,1,L26_NIRS-2019-09-07_005_trial09.txt,73.0
16,1098.048,18.4195909,7.968095610000001,0.20300014000000002,0.6016586629999999,0.7180676169999999,0.287491263,3.97485707,3.2574047999999998,-0.6570767630000001,-0.6655098389999999,-0.586970254,-0.334171808,,202.75757575757575,1,L26_NIRS-2019-09-07_005_trial09.txt,73.0
17,1099.328,18.429562899999997,7.90698965,0.130766964,0.566164632,0.689604382,0.218274854,3.98528346,3.2685531700000006,-0.658931704,-0.655483537,-0.5880721400000002,-0.33385061,,202.75757575757575,1,L26_NIRS-2019-09-07_005_trial09.txt,73.0
18,1100.608,18.4633666,7.898382509999999,0.13384803900000003,0.568186217,0.6574632229999999,0.19503483299999996,3.98969447,3.27558948,-0.6534584339999999,-0.65329389,-0.587326238,-0.32273254700000004,,202.75757575757575,1,L26_NIRS-2019-09-07_005_trial09.txt,73.0
19,1101.888,18.533269300000004,7.9720848900000005,0.23083013999999996,0.6287527660000001,0.668825514,0.25897311700000003,3.96716329,3.2688374500000004,-0.65088154,-0.667909055,-0.595387583,-0.321446091,,202.75757575757575,1,L26_NIRS-2019-09-07_005_trial09.txt,73.0
20,1103.1680000000001,18.6270531,8.09961207,0.391577426,0.7336425569999999,0.7276268009999999,0.380325013,3.92495087,3.24028348,-0.654833829,-0.698349793,-0.6160231199999999,-0.335147314,,202.75757575757575,1,L26_NIRS-2019-09-07_005_trial09.txt,73.0
21,1104.448,18.7119902,8.231554179999998,0.55343885,0.8579362830000001,0.8053714839999999,0.501306107,3.86528065,3.1952082299999995,-0.669758448,-0.732899858,-0.642881803,-0.359121794,,202.75757575757575,1,L26_NIRS-2019-09-07_005_trial09.txt,73.0
22,1105.728,18.7462917,8.3215524,0.644934801,0.9487817890000001,0.853030102,0.5563259279999999,3.7975366100000003,3.1495837299999994,-0.6989934959999999,-0.760733454,-0.662917882,-0.38194103100000004,,202.75757575757575,1,L26_NIRS-2019-09-07_005_trial09.txt,73.0
23,1107.0080000000003,18.7297448,8.33403229,0.628706717,0.944350125,0.836696341,0.5161662629999999,3.74495423,3.1108094999999993,-0.7374158989999999,-0.780689448,-0.6678392489999999,-0.387793948,,202.75757575757575,1,L26_NIRS-2019-09-07_005_trial09.txt,73.0
24,1108.288,18.6802515,8.28708893,0.539544838,0.8529881360000001,0.77966961,0.4474635780000001,3.72312641,3.09185143,-0.7738010370000001,-0.790639836,-0.6542048219999999,-0.364335847,,202.75757575757575,1,L26_NIRS-2019-09-07_005_trial09.txt,73.0
25,1109.568,18.617402199999997,8.217573090000002,0.43959925,0.729092836,0.7180417580000001,0.38243009599999994,3.7364681500000003,3.1016712399999995,-0.7932732350000001,-0.7880278159999999,-0.6268584469999999,-0.32065295000000005,,202.75757575757575,1,L26_NIRS-2019-09-07_005_trial09.txt,73.0
26,1110.848,18.5434539,8.14747058,0.36452904799999997,0.6207058950000001,0.669622082,0.314902844,3.77421754,3.1342674799999997,-0.7932639,-0.774659499,-0.5971104049999999,-0.275879822,,202.75757575757575,1,L26_NIRS-2019-09-07_005_trial09.txt,73.0
27,1112.1280000000002,18.475383400000005,8.092577850000001,0.34553418700000005,0.566726852,0.644397692,0.24819181599999998,3.82383368,3.1780536600000002,-0.7743332329999999,-0.7557901800000001,-0.573897785,-0.24762885499999995,,202.75757575757575,1,L26_NIRS-2019-09-07_005_trial09.txt,73.0
28,1113.408,18.424195000000005,8.0555002,0.363396707,0.5745734459999999,0.631914848,0.180183285,3.8687375499999996,3.21646034,-0.746719423,-0.735165637,-0.5631575389999999,-0.245813478,,202.75757575757575,1,L26_NIRS-2019-09-07_005_trial09.txt,73.0
29,1114.688,18.380127700000003,8.024338100000001,0.370415124,0.6064610880000001,0.6095404170000001,0.10478178860000001,3.8969061600000003,3.2430874000000003,-0.72698262,-0.7164149980000001,-0.562266559,-0.26451000500000005,,202.75757575757575,1,L26_NIRS-2019-09-07_005_trial09.txt,73.0
30,1115.9679999999998,18.362705000000002,7.998411970000001,0.355924889,0.6317901459999999,0.589004174,0.052759005299999995,3.9133528100000006,3.2578567900000004,-0.720203144,-0.7060004529999999,-0.562962166,-0.287729025,,202.75757575757575,1,L26_NIRS-2019-09-07_005_trial09.txt,73.0
31,1117.248,18.3771749,8.0035367,0.360840761,0.6561409140000001,0.5937464929999999,0.060932182599999996,3.9181258099999994,3.26424497,-0.720892229,-0.7044720679999998,-0.5637606,-0.300786878,,202.75757575757575,1,L26_NIRS-2019-09-07_005_trial09.txt,73.0
32,1118.528,18.422291800000004,8.062040620000001,0.421725013,0.7010237349999999,0.6285264559999999,0.1092926319,3.91298166,3.26698409,-0.7224307879999999,-0.709231056,-0.566282733,-0.305466633,,202.75757575757575,1,L26_NIRS-2019-09-07_005_trial09.txt,73.0
33,1119.808,18.4926246,8.14423235,0.5166966590000001,0.7508105,0.6699139030000001,0.162401986,3.8951876399999996,3.26795352,-0.721373278,-0.7113513220000001,-0.569220395,-0.309363495,,202.75757575757575,1,L26_NIRS-2019-09-07_005_trial09.txt,73.0
34,1121.0880000000002,18.558653999999997,8.189544190000001,0.606858788,0.76512712,0.686715213,0.23977196000000003,3.86152853,3.26520969,-0.718813601,-0.7052772009999998,-0.567455676,-0.31247383799999995,,202.75757575757575,1,L26_NIRS-2019-09-07_005_trial09.txt,73.0
35,1122.368,18.5678161,8.18130923,0.6507298690000001,0.724619404,0.6469502260000001,0.327737411,3.807122100000001,3.26603724,-0.718024299,-0.6854031560000001,-0.558933049,-0.310039709,,202.75757575757575,1,L26_NIRS-2019-09-07_005_trial09.txt,73.0
36,1123.648,18.514152,8.10756546,0.6172469970000001,0.6292877320000001,0.5608226909999999,0.38535507399999996,3.7536863699999996,3.27255263,-0.720435506,-0.656420156,-0.539677594,-0.312069897,,202.75757575757575,1,L26_NIRS-2019-09-07_005_trial09.txt,73.0
37,1124.9280000000003,18.4652068,8.014934370000002,0.5668108129999999,0.550632447,0.5054472249999999,0.46749829600000004,3.7134250599999996,3.28472272,-0.712560289,-0.628021261,-0.5141676980000001,-0.31911793000000005,,202.75757575757575,1,L26_NIRS-2019-09-07_005_trial09.txt,73.0
38,1126.208,18.450969500000003,7.965857550000001,0.5606474140000001,0.540127306,0.513675164,0.5804357070000001,3.67903298,3.2949492299999994,-0.68786907,-0.6045041090000001,-0.49382445299999994,-0.32797613600000003,,202.75757575757575,1,L26_NIRS-2019-09-07_005_trial09.txt,73.0
39,1127.488,18.5023828,8.00554994,0.6438227470000001,0.61815982,0.584374842,0.678749408,3.65276301,3.3001707300000005,-0.654830961,-0.590019148,-0.48381733000000005,-0.33922540300000004,,202.75757575757575,1,L26_NIRS-2019-09-07_005_trial09.txt,73.0
40,1128.768,18.6156692,8.106474549999998,0.7914600930000001,0.732534665,0.674862759,0.753754939,3.6433753199999996,3.30233093,-0.6261080299999999,-0.5802078089999999,-0.478283036,-0.33845169900000005,,202.75757575757575,1,L26_NIRS-2019-09-07_005_trial09.txt,73.0
41,1130.048,18.6983094,8.176866050000001,0.893423593,0.778409535,0.709288089,0.790052837,3.6398798400000003,3.30222016,-0.6161191560000001,-0.570245645,-0.468892168,-0.319143098,,202.75757575757575,1,L26_NIRS-2019-09-07_005_trial09.txt,73.0
42,1131.328,18.6384699,8.15512696,0.8502067200000001,0.7034778099999999,0.636519128,0.7350605989999999,3.6258394499999995,3.3073901500000007,-0.629820964,-0.557485635,-0.45351301400000005,-0.27829569200000004,,202.75757575757575,1,L26_NIRS-2019-09-07_005_trial09.txt,73.0
43,1132.608,18.4991129,8.060492190000002,0.6909388059999999,0.5563806279999999,0.5189894289999999,0.615963624,3.6198859,3.3077451800000004,-0.6558040780000001,-0.5551964479999999,-0.4378201970000001,-0.237171989,,202.75757575757575,1,L26_NIRS-2019-09-07_005_trial09.txt,73.0
44,1133.888,18.360551800000003,7.9485030299999995,0.529066295,0.43389139199999993,0.44822711800000004,0.515101827,3.6143200300000005,3.29728876,-0.678791238,-0.5688421509999999,-0.43628424499999996,-0.21150041599999997,,202.75757575757575,1,L26_NIRS-2019-09-07_005_trial09.txt,73.0
45,1135.1680000000001,18.2887441,7.881435090000001,0.455161969,0.39330307300000006,0.45827119000000005,0.468351442,3.605370179999999,3.27952151,-0.6879344199999999,-0.589243908,-0.455533784,-0.20765058900000005,,202.75757575757575,1,L26_NIRS-2019-09-07_005_trial09.txt,73.0
46,1136.448,18.3432233,7.918060370000001,0.5295632589999999,0.4587257750000001,0.554610649,0.502528965,3.6002226299999998,3.2600133300000005,-0.6844536309999999,-0.603106598,-0.48810578100000007,-0.23187669,,202.75757575757575,1,L26_NIRS-2019-09-07_005_trial09.txt,73.0
47,1137.728,18.4791244,8.026990600000001,0.692124792,0.561030005,0.6755289720000001,0.6012406809999999,3.59789841,3.2416171199999995,-0.682930238,-0.6048582469999999,-0.52063964,-0.26952585000000007,,202.75757575757575,1,L26_NIRS-2019-09-07_005_trial09.txt,73.0
48,1139.0080000000003,18.5935242,8.1260391,0.829773844,0.628608251,0.759718617,0.7217600039999998,3.59897704,3.23348472,-0.689119007,-0.5932736359999999,-0.5409467720000001,-0.30504838300000003,,202.75757575757575,1,L26_NIRS-2019-09-07_005_trial09.txt,73.0
49,1140.288,18.5905306,8.146645949999998,0.842248934,0.6198343420000001,0.765566941,0.7688554790000001,3.59369181,3.2388876100000004,-0.7015508990000001,-0.579812325,-0.549130222,-0.32490125000000003,,202.75757575757575,1,L26_NIRS-2019-09-07_005_trial09.txt,73.0
50,1141.568,18.5069703,8.094120359999998,0.746100319,0.552158089,0.715342537,0.737300492,3.5956829600000004,3.24382296,-0.7136975809999999,-0.5780044780000001,-0.549515643,-0.32046141200000006,,202.75757575757575,1,L26_NIRS-2019-09-07_005_trial09.txt,73.0
51,1142.848,18.384582,7.990197400000001,0.61330508,0.46391646599999997,0.641807368,0.6489931360000001,3.5995409700000005,3.2410453699999997,-0.722951381,-0.586198615,-0.5465032310000001,-0.29973282599999995,,202.75757575757575,1,L26_NIRS-2019-09-07_005_trial09.txt,73.0
52,1144.1280000000002,18.2924548,7.89708457,0.5265392139999999,0.40414767199999996,0.581963026,0.546783265,3.6064914400000005,3.2387343700000004,-0.724510883,-0.597204689,-0.5422298210000001,-0.27341475899999995,,202.75757575757575,1,L26_NIRS-2019-09-07_005_trial09.txt,73.0
53,1145.408,18.2737718,7.867624000000001,0.521216518,0.3898328810000001,0.5542079209999999,0.48812797100000005,3.6105136100000004,3.23744021,-0.7177510899999999,-0.602659606,-0.5384580320000001,-0.259745661,,202.75757575757575,1,L26_NIRS-2019-09-07_005_trial09.txt,73.0
54,1146.688,18.305990400000002,7.890922090000001,0.55925862,0.381946772,0.539284948,0.47140684000000005,3.60346768,3.2332754200000005,-0.7093846180000001,-0.606330424,-0.53682057,-0.263551721,,202.75757575757575,1,L26_NIRS-2019-09-07_005_trial09.txt,73.0
55,1147.9679999999998,18.340412,7.923646100000001,0.574704973,0.36176745,0.532722424,0.4744247140000001,3.59392505,3.22677446,-0.7075680059999999,-0.615762384,-0.5382594709999999,-0.27883684999999997,,202.75757575757575,1,L26_NIRS-2019-09-07_005_trial09.txt,73.0
56,1149.248,18.353292,7.93299667,0.52664327,0.352335028,0.536219847,0.452972432,3.58796631,3.2200032400000005,-0.713363638,-0.6219362210000001,-0.544899663,-0.302229706,,202.75757575757575,1,L26_NIRS-2019-09-07_005_trial09.txt,73.0
57,1150.208,18.3041552,7.90602844,0.454443146,0.331136812,0.537845306,0.397300932,3.57377908,3.2121958399999997,-0.72615442,-0.630022964,-0.5504091440000001,-0.32051844799999996,,202.75757575757575,1,L26_NIRS-2019-09-07_005_trial09.txt,73.0
