,time,S3_D4_HbO,S3_D3_HbO,S2_D3_HbO,S2_D2_HbO,S1_D2_HbO,S1_D1_HbO,S3_D4_HbR,S3_D3_HbR,S2_D3_HbR,S2_D2_HbR,S1_D2_HbR,S1_D1_HbR,Var14,score,labelnum,filename,total_time
0,148.67199999999997,1.88888268,-1.18053271,0.04126252167,-1.1034494000000001,-0.3718530460000001,1.009368961,17.0303274,-0.499764229,0.7194055610000001,-0.5763208969999999,0.004341221970000001,0.744767175,,226.75757575757575,1,L26_NIRS-2019-09-09_006_trial02.txt,49.0
1,149.952,1.9537906699999996,-1.23757205,-0.02096021719,-1.1753510200000001,-0.38705492299999994,1.0460749599999999,16.8148019,-0.510720364,0.658927456,-0.5879267799999999,0.00458267576,0.7229757959999998,,226.75757575757575,1,L26_NIRS-2019-09-09_006_trial02.txt,49.0
2,151.232,2.08740444,-1.23059283,-0.007590161130999998,-1.1393500300000001,-0.37189479799999997,1.0445221300000003,16.7097529,-0.515596416,0.5962480109999999,-0.5897926519999999,-0.006937885478,0.686597682,,226.75757575757575,1,L26_NIRS-2019-09-09_006_trial02.txt,49.0
3,152.512,2.134595,-1.15190981,0.10029957009999999,-1.0015493110000002,-0.31544827900000005,1.0574506700000001,16.6977002,-0.521123837,0.5433516230000001,-0.585449135,-0.0388616272,0.65060115,,226.75757575757575,1,L26_NIRS-2019-09-09_006_trial02.txt,49.0
4,153.792,2.10431367,-1.0393102950000002,0.253012201,-0.8195309489999998,-0.22423627299999999,1.11001634,16.6563442,-0.5406596730000001,0.49275020699999994,-0.596174361,-0.08777559360000001,0.631376176,,226.75757575757575,1,L26_NIRS-2019-09-09_006_trial02.txt,49.0
5,155.07199999999997,1.8423612400000002,-0.9414796649999999,0.388912561,-0.6517864889999999,-0.1271241413,1.18221745,16.823794900000003,-0.571048069,0.45149680300000006,-0.623378944,-0.139707529,0.630498472,,226.75757575757575,1,L26_NIRS-2019-09-09_006_trial02.txt,49.0
6,156.352,1.72554713,-0.89670197,0.44221485400000005,-0.548939458,-0.05379242689999999,1.2161326799999999,16.8064396,-0.605709913,0.430671822,-0.652433773,-0.181816884,0.6226750030000001,,226.75757575757575,1,L26_NIRS-2019-09-09_006_trial02.txt,49.0
7,157.632,1.70658249,-0.8938164000000002,0.44895132800000004,-0.5123682700000001,-0.03688048270000001,1.21111719,16.6995116,-0.6066625959999999,0.42155539499999994,-0.661118302,-0.212626435,0.601917451,,226.75757575757575,1,L26_NIRS-2019-09-09_006_trial02.txt,49.0
8,158.912,1.7358025099999999,-0.9056557490000001,0.4323658760000001,-0.540314251,-0.059078387900000015,1.19680899,16.595265599999998,-0.572231797,0.42690600300000003,-0.6452483010000001,-0.226009146,0.561028133,,226.75757575757575,1,L26_NIRS-2019-09-09_006_trial02.txt,49.0
9,160.19199999999995,1.83174959,-0.9275198870000001,0.37650720299999996,-0.6352336319999999,-0.09781905049999999,1.2016329199999998,16.544633499999996,-0.535498412,0.438554944,-0.614984129,-0.22055456199999995,0.515359844,,226.75757575757575,1,L26_NIRS-2019-09-09_006_trial02.txt,49.0
10,161.472,1.83886459,-0.9247528939999998,0.340022349,-0.726997438,-0.12340004500000001,1.24651783,16.615550699999996,-0.507080545,0.45643248200000003,-0.584875251,-0.21255637899999996,0.4775437879999999,,226.75757575757575,1,L26_NIRS-2019-09-09_006_trial02.txt,49.0
11,162.752,1.7525639800000001,-0.8721152569999999,0.363720132,-0.7364435439999999,-0.1072986665,1.2978829699999999,16.861128,-0.498186535,0.467615246,-0.5724396159999999,-0.21073077699999998,0.450669624,,226.75757575757575,1,L26_NIRS-2019-09-09_006_trial02.txt,49.0
12,164.03199999999998,1.45570178,-0.797804908,0.414756727,-0.685696672,-0.0589816328,1.3097008,17.318509100000004,-0.5149578860000001,0.45601737,-0.5897518529999999,-0.21381307200000005,0.4345238960000001,,226.75757575757575,1,L26_NIRS-2019-09-09_006_trial02.txt,49.0
13,165.31199999999998,1.2906356200000002,-0.738239031,0.503626884,-0.626921094,-0.027160908700000003,1.2565381999999998,17.5604252,-0.5375137170000001,0.456976209,-0.6118047160000001,-0.219268946,0.41703335199999997,,226.75757575757575,1,L26_NIRS-2019-09-09_006_trial02.txt,49.0
14,166.592,1.0708918870000002,-0.7049897059999999,0.6214502659999999,-0.592368299,-0.04247577339999999,1.15721922,17.7824848,-0.515810005,0.497641488,-0.61122846,-0.215723928,0.4058903880000001,,226.75757575757575,1,L26_NIRS-2019-09-09_006_trial02.txt,49.0
15,167.872,0.8118424989999997,-0.703421558,0.7251161469999999,-0.580028768,-0.06686179879999998,1.08991309,18.0718397,-0.46961311099999997,0.555682529,-0.5903131189999999,-0.200542985,0.41200867499999994,,226.75757575757575,1,L26_NIRS-2019-09-09_006_trial02.txt,49.0
16,169.152,0.7646389429999999,-0.7092424399999999,0.80013237,-0.5721215379999999,-0.0826570388,1.05008768,18.1151104,-0.42184438600000007,0.6150281750000002,-0.563374822,-0.18605359800000004,0.43490547700000004,,226.75757575757575,1,L26_NIRS-2019-09-09_006_trial02.txt,49.0
17,170.432,0.8284915530000001,-0.682474295,0.869796584,-0.513094419,-0.05521084660000001,1.05227604,18.034185700000002,-0.39395815500000003,0.656826592,-0.550070649,-0.18664370800000002,0.4680982759999999,,226.75757575757575,1,L26_NIRS-2019-09-09_006_trial02.txt,49.0
18,171.712,0.9583860679999999,-0.6104684299999998,0.910000434,-0.404354399,0.02031824777,1.09930668,17.9366834,-0.39708372699999994,0.651664756,-0.574143795,-0.209398885,0.49529581799999994,,226.75757575757575,1,L26_NIRS-2019-09-09_006_trial02.txt,49.0
19,172.992,1.08924959,-0.5428092390000001,0.8866723950000001,-0.320378999,0.10654333100000002,1.1675238700000001,17.887121099999998,-0.43063175,0.6028827010000001,-0.630272014,-0.246325263,0.5052815399999999,,226.75757575757575,1,L26_NIRS-2019-09-09_006_trial02.txt,49.0
20,174.272,1.16250556,-0.51295524,0.8385232810000002,-0.305072047,0.152584234,1.22312137,17.788398100000002,-0.4666877179999999,0.559650892,-0.6800128360000001,-0.283135128,0.49616817899999993,,226.75757575757575,1,L26_NIRS-2019-09-09_006_trial02.txt,49.0
21,175.552,1.18224507,-0.515158586,0.809197363,-0.330834367,0.15838004300000003,1.2488423800000001,17.6968383,-0.47694565899999997,0.5452833920000001,-0.699525715,-0.30484276200000004,0.4869925749999999,,226.75757575757575,1,L26_NIRS-2019-09-09_006_trial02.txt,49.0
22,176.832,1.0733175300000002,-0.524184966,0.79587362,-0.3650348970000001,0.157154285,1.2458920199999999,17.7389294,-0.479159137,0.535280575,-0.699983961,-0.312636982,0.485429384,,226.75757575757575,1,L26_NIRS-2019-09-09_006_trial02.txt,49.0
23,178.112,1.2672418699999999,-0.522920562,0.8101686129999999,-0.38210287800000003,0.15624300200000002,1.21282428,17.3699252,-0.48456538499999996,0.5284167820000001,-0.692924152,-0.315666079,0.48313591300000003,,226.75757575757575,1,L26_NIRS-2019-09-09_006_trial02.txt,49.0
24,179.392,1.35480557,-0.510472601,0.8409763960000001,-0.37698757699999996,0.170652937,1.19372821,17.125620500000004,-0.495749523,0.520969146,-0.685934002,-0.31534391599999995,0.47538013600000006,,226.75757575757575,1,L26_NIRS-2019-09-09_006_trial02.txt,49.0
25,180.67200000000003,1.4451674799999998,-0.50408094,0.836728291,-0.388926766,0.18897565300000002,1.20759281,16.9213029,-0.509333437,0.5036435450000001,-0.689412452,-0.318276494,0.459948947,,226.75757575757575,1,L26_NIRS-2019-09-09_006_trial02.txt,49.0
26,181.952,1.5359663400000003,-0.5149811740000001,0.786190207,-0.44104822400000004,0.188446942,1.21322975,16.791692400000002,-0.523294894,0.48647637999999993,-0.700023303,-0.32328696599999995,0.4430388049999999,,226.75757575757575,1,L26_NIRS-2019-09-09_006_trial02.txt,49.0
27,183.232,1.49833363,-0.520585906,0.730645787,-0.49850016900000005,0.16858151400000002,1.17735053,16.8466227,-0.5367151569999998,0.47612420699999997,-0.7073685239999998,-0.32773969700000005,0.43229589500000004,,226.75757575757575,1,L26_NIRS-2019-09-09_006_trial02.txt,49.0
28,184.51199999999997,1.4063849000000002,-0.5063455689999999,0.707424541,-0.528805601,0.137222582,1.1015769899999999,16.9641461,-0.5454584060000001,0.477684648,-0.704092484,-0.33006829400000004,0.43154565099999986,,226.75757575757575,1,L26_NIRS-2019-09-09_006_trial02.txt,49.0
29,185.792,1.2895012600000002,-0.482977619,0.702176139,-0.5345628949999999,0.11214750199999998,1.0250265060000001,17.0868106,-0.552937419,0.478490736,-0.693795306,-0.32803960000000004,0.43701152499999996,,226.75757575757575,1,L26_NIRS-2019-09-09_006_trial02.txt,49.0
30,187.07200000000003,1.39739616,-0.48698283700000006,0.693083946,-0.537928497,0.094614562,0.9821129049999999,16.9232698,-0.5547717299999999,0.48246025700000006,-0.678364203,-0.31949668,0.446830127,,226.75757575757575,1,L26_NIRS-2019-09-09_006_trial02.txt,49.0
31,188.352,1.24686662,-0.535383379,0.65888245,-0.5609458789999999,0.07721015340000001,0.969207492,16.9842555,-0.549103064,0.488038226,-0.658634508,-0.302569773,0.45743126500000003,,226.75757575757575,1,L26_NIRS-2019-09-09_006_trial02.txt,49.0
32,189.632,1.021457316,-0.6014728659999999,0.626739586,-0.589270966,0.058316612999999996,0.9597932049999999,17.181053,-0.535899753,0.497920576,-0.6355665149999999,-0.28183857300000004,0.4675918660000001,,226.75757575757575,1,L26_NIRS-2019-09-09_006_trial02.txt,49.0
33,190.912,0.870023353,-0.6498873730000001,0.615259727,-0.6058309089999999,0.04101315870000001,0.922493351,17.362067600000003,-0.521522083,0.507401862,-0.621086418,-0.26511615899999996,0.47846097299999996,,226.75757575757575,1,L26_NIRS-2019-09-09_006_trial02.txt,49.0
34,192.192,0.788017213,-0.6421416219999999,0.641909117,-0.586158564,0.0434919244,0.8863773119999999,17.5664119,-0.516395199,0.51011162,-0.6178385540000001,-0.25353511199999995,0.49169027299999996,,226.75757575757575,1,L26_NIRS-2019-09-09_006_trial02.txt,49.0
35,193.47199999999998,0.715052125,-0.5990295480000001,0.6856869640000001,-0.555429763,0.0553720172,0.8750744859999999,17.7187623,-0.518103514,0.505348755,-0.620170421,-0.24382317799999997,0.50083331,,226.75757575757575,1,L26_NIRS-2019-09-09_006_trial02.txt,49.0
36,194.75199999999998,0.7698000460000001,-0.5527549799999999,0.717261269,-0.5466093139999999,0.07053254880000001,0.907456117,17.7618036,-0.516202998,0.4999266049999999,-0.6187389099999999,-0.229243458,0.498050464,,226.75757575757575,1,L26_NIRS-2019-09-09_006_trial02.txt,49.0
37,196.03199999999998,1.0585516240000001,-0.5802797090000001,0.6563773840000001,-0.614028473,0.05970620189999999,0.946347848,17.522861,-0.5109930520000001,0.50097687,-0.627783088,-0.207173079,0.482898436,,226.75757575757575,1,L26_NIRS-2019-09-09_006_trial02.txt,49.0
38,197.31199999999998,1.1604449200000002,-0.6679578700000001,0.645886507,-0.6705017270000001,0.0328157013,1.0324602600000001,17.3684791,-0.500366209,0.484811169,-0.622083582,-0.17767601800000002,0.480455747,,226.75757575757575,1,L26_NIRS-2019-09-09_006_trial02.txt,49.0
