,time,S3_D4_HbO,S3_D3_HbO,S2_D3_HbO,S2_D2_HbO,S1_D2_HbO,S1_D1_HbO,S3_D4_HbR,S3_D3_HbR,S2_D3_HbR,S2_D2_HbR,S1_D2_HbR,S1_D1_HbR,Var14,score,labelnum,filename,total_time
0,14.4,4.7238979699999994,2.52047045,-0.0007548120200000005,-0.6724367370000001,0.12038116389999998,0.167902842,0.9298384439999999,0.680056224,0.10916863599999997,-0.29372326000000004,-0.349363725,0.235375311,,6.787878787878789,0,L26_NIRS-2019-09-06_006_trial01.txt,272.0
1,15.679999999999998,4.766900990000001,2.5626989300000003,-0.04513113679999999,-0.7217302240000001,0.0430687736,0.037437195454000004,0.865028418,0.692396672,0.10641735199999999,-0.292511584,-0.35128218,0.25443792899999995,,6.787878787878789,0,L26_NIRS-2019-09-06_006_trial01.txt,272.0
2,16.96,4.66984452,2.5533172200000003,-0.0298845466,-0.6804532510000001,0.0021401681379999995,-0.0646774208,0.8649468889999999,0.735330815,0.12522934400000002,-0.268383946,-0.358733316,0.278133939,,6.787878787878789,0,L26_NIRS-2019-09-06_006_trial01.txt,272.0
3,18.240000000000002,4.57469726,2.51462313,-0.041597392100000005,-0.667878081,-0.0191123635,-0.11143802300000001,0.8552701039999999,0.773232852,0.13509683,-0.25172119499999995,-0.349898155,0.30669070099999995,,6.787878787878789,0,L26_NIRS-2019-09-06_006_trial01.txt,272.0
4,19.52,4.550121659999999,2.4506475599999997,-0.09222714609999999,-0.7117872579999999,-0.043387908999999995,-0.122221129,0.871343528,0.786734227,0.13185399700000003,-0.252616346,-0.32988777900000005,0.34028144499999996,,6.787878787878789,0,L26_NIRS-2019-09-06_006_trial01.txt,272.0
5,20.8,4.505604229999999,2.35404302,-0.18824496300000002,-0.827336833,-0.1093276988,-0.15135173600000001,0.8903352530000002,0.780926542,0.124399864,-0.264761785,-0.311343417,0.369818872,,6.787878787878789,0,L26_NIRS-2019-09-06_006_trial01.txt,272.0
6,22.080000000000002,4.403768530000001,2.24557447,-0.315306362,-0.9720921619999998,-0.198616028,-0.170602916,0.8925627580000001,0.7665925199999999,0.112834505,-0.28041057,-0.29277636400000007,0.3944229500000001,,6.787878787878789,0,L26_NIRS-2019-09-06_006_trial01.txt,272.0
7,23.36,4.29152775,2.15963077,-0.43309712199999995,-1.10075495,-0.254747082,-0.16783360100000003,0.8795874829999999,0.755818291,0.101911789,-0.29152550699999996,-0.26860695,0.42324299199999993,,6.787878787878789,0,L26_NIRS-2019-09-06_006_trial01.txt,272.0
8,24.64,4.2147236800000005,2.12764402,-0.5120683510000001,-1.1800926199999997,-0.26002191,-0.167685003,0.8645734950000001,0.7591576440000001,0.1008880388,-0.2895150060000001,-0.24333611,0.448398741,,6.787878787878789,0,L26_NIRS-2019-09-06_006_trial01.txt,272.0
9,25.919999999999998,4.16325935,2.13561352,-0.5453249739999999,-1.20980077,-0.23813060199999997,-0.21871962000000003,0.8456675169999999,0.7705857899999999,0.11310402400000001,-0.27137487400000004,-0.225999586,0.461212628,,6.787878787878789,0,L26_NIRS-2019-09-06_006_trial01.txt,272.0
10,27.2,4.16312151,2.1218635000000003,-0.5661878229999999,-1.2515094199999999,-0.24944005000000002,-0.344077274,0.838424198,0.7833588309999999,0.13540708299999998,-0.24805408199999998,-0.227856718,0.45409865,,6.787878787878789,0,L26_NIRS-2019-09-06_006_trial01.txt,272.0
11,28.48,4.11052562,2.0414500799999997,-0.6140513710000001,-1.3417919,-0.315097422,-0.48308252300000004,0.822811053,0.783095403,0.151963366,-0.232306348,-0.23402210500000004,0.437433061,,6.787878787878789,0,L26_NIRS-2019-09-06_006_trial01.txt,272.0
12,29.76,3.9753220999999996,1.9459533699999998,-0.696268874,-1.4683649699999999,-0.39198243000000005,-0.6088370249999999,0.7913378879999999,0.785617381,0.16566794599999998,-0.215380993,-0.237844699,0.4428142709999999,,6.787878787878789,0,L26_NIRS-2019-09-06_006_trial01.txt,272.0
13,31.04,3.8201852300000008,1.8727128199999998,-0.795025942,-1.59712627,-0.43336003700000003,-0.654293083,0.756187902,0.798657164,0.176847212,-0.197795839,-0.231424918,0.472321829,,6.787878787878789,0,L26_NIRS-2019-09-06_006_trial01.txt,272.0
14,32.32,3.701259940000001,1.8475791000000001,-0.881560401,-1.68343375,-0.40979353300000004,-0.601008408,0.729062829,0.8161634680000001,0.18295671400000002,-0.181630384,-0.21687415300000001,0.518395986,,6.787878787878789,0,L26_NIRS-2019-09-06_006_trial01.txt,272.0
15,33.6,3.648262570000001,1.8814304199999998,-0.9242819260000001,-1.6921035,-0.33881516200000006,-0.482675818,0.714712001,0.8301002310000001,0.18668930999999997,-0.16823306700000001,-0.20325800199999997,0.571847309,,6.787878787878789,0,L26_NIRS-2019-09-06_006_trial01.txt,272.0
16,34.88000000000001,3.6580978800000006,1.95294503,-0.909568945,-1.63320373,-0.26595192199999995,-0.37295878,0.706361005,0.827802608,0.18600182,-0.161098588,-0.196735102,0.6123836850000001,,6.787878787878789,0,L26_NIRS-2019-09-06_006_trial01.txt,272.0
17,36.160000000000004,3.71600345,2.00783119,-0.8621085619999999,-1.56354806,-0.24512959699999998,-0.34230119,0.705221577,0.811694971,0.18066782200000003,-0.162532816,-0.203699111,0.6117988000000001,,6.787878787878789,0,L26_NIRS-2019-09-06_006_trial01.txt,272.0
18,37.44,3.7637811799999996,2.03463612,-0.8205383509999999,-1.5315983799999997,-0.28859332200000004,-0.394738917,0.6922590020000001,0.7930742900000001,0.175351875,-0.168044672,-0.21873786400000003,0.579649401,,6.787878787878789,0,L26_NIRS-2019-09-06_006_trial01.txt,272.0
19,38.72,3.75763904,2.04791127,-0.809512097,-1.5447239699999997,-0.344546469,-0.45478863899999994,0.653435629,0.7780947840000001,0.171691824,-0.168701825,-0.228233811,0.556428309,,6.787878787878789,0,L26_NIRS-2019-09-06_006_trial01.txt,272.0
20,40.0,3.7431432699999996,2.05810586,-0.8294431469999999,-1.5824346499999997,-0.374549078,-0.49406722499999994,0.610580361,0.7747225929999999,0.17344259799999998,-0.161934112,-0.227966565,0.5468932910000001,,6.787878787878789,0,L26_NIRS-2019-09-06_006_trial01.txt,272.0
21,41.28,3.7445761400000004,2.05999385,-0.856623916,-1.60403716,-0.368972229,-0.496300486,0.578116786,0.778152975,0.177131981,-0.150486477,-0.220979847,0.531705898,,6.787878787878789,0,L26_NIRS-2019-09-06_006_trial01.txt,272.0
22,42.56,3.75714201,2.05654995,-0.8665797750000002,-1.58968059,-0.347879215,-0.478003305,0.552925512,0.7821424249999999,0.18420330199999999,-0.137422701,-0.212534146,0.5118212560000001,,6.787878787878789,0,L26_NIRS-2019-09-06_006_trial01.txt,272.0
23,43.84,3.76054769,2.0449682099999995,-0.85227367,-1.5434252899999998,-0.33620089400000003,-0.47905894400000004,0.529661163,0.7869528289999999,0.192164783,-0.12384273500000002,-0.209210859,0.48586209999999996,,6.787878787878789,0,L26_NIRS-2019-09-06_006_trial01.txt,272.0
24,45.11999999999999,3.74070817,2.0306518000000002,-0.8175291469999999,-1.4769392,-0.337083326,-0.4987543280000001,0.502365578,0.797936459,0.20053762400000003,-0.110534179,-0.21149921300000002,0.458702084,,6.787878787878789,0,L26_NIRS-2019-09-06_006_trial01.txt,272.0
25,46.39999999999999,3.72150502,2.03932542,-0.761370031,-1.39222109,-0.3384077040000001,-0.5106237430000001,0.473076704,0.8103277849999999,0.20815005799999997,-0.10258319899999999,-0.219499779,0.437855697,,6.787878787878789,0,L26_NIRS-2019-09-06_006_trial01.txt,272.0
26,47.67999999999999,3.7105626000000003,2.07377926,-0.69060898,-1.30043107,-0.329096701,-0.5016219150000001,0.446008961,0.815313662,0.21295900699999998,-0.10651404899999999,-0.229679954,0.42423714000000007,,6.787878787878789,0,L26_NIRS-2019-09-06_006_trial01.txt,272.0
27,48.959999999999994,3.6805602799999995,2.1155054499999997,-0.627345122,-1.219205,-0.306188284,-0.500145215,0.427523193,0.8106590810000001,0.211129077,-0.12320165999999999,-0.239230995,0.41694324599999993,,6.787878787878789,0,L26_NIRS-2019-09-06_006_trial01.txt,272.0
28,50.239999999999995,3.6275706199999993,2.13575536,-0.5918822519999999,-1.1655765500000002,-0.283902789,-0.50822962,0.4203894860000001,0.792585289,0.199325308,-0.15301878900000002,-0.24950527299999997,0.406498232,,6.787878787878789,0,L26_NIRS-2019-09-06_006_trial01.txt,272.0
29,51.519999999999996,3.5498149899999993,2.11513696,-0.599297292,-1.1601644500000001,-0.281426887,-0.514121109,0.42071618099999997,0.7670721370000001,0.181795017,-0.18832202099999998,-0.256449799,0.39694254900000003,,6.787878787878789,0,L26_NIRS-2019-09-06_006_trial01.txt,272.0
30,52.8,3.46219889,2.06705031,-0.641729853,-1.19728368,-0.300349566,-0.5308920290000001,0.42347944800000004,0.7491228559999998,0.16531856399999997,-0.211803644,-0.26092529400000003,0.390262958,,6.787878787878789,0,L26_NIRS-2019-09-06_006_trial01.txt,272.0
31,54.08,3.39616542,2.0295467,-0.6851930420000001,-1.2429956500000001,-0.329204754,-0.554589078,0.42297968199999997,0.7479927559999999,0.158658614,-0.20963999299999997,-0.262336713,0.385028514,,6.787878787878789,0,L26_NIRS-2019-09-06_006_trial01.txt,272.0
32,55.36,3.37545185,2.02220264,-0.699664873,-1.2665978199999999,-0.352705759,-0.572214758,0.415965191,0.75081414,0.158023921,-0.188995163,-0.260566663,0.38470389000000005,,6.787878787878789,0,L26_NIRS-2019-09-06_006_trial01.txt,272.0
33,56.64,3.3916571999999996,2.05312794,-0.6689264620000002,-1.24631004,-0.367867181,-0.599145689,0.40191247900000004,0.7501693369999999,0.15961490400000003,-0.164434379,-0.259692545,0.376119102,,6.787878787878789,0,L26_NIRS-2019-09-06_006_trial01.txt,272.0
34,57.92,3.427008979999999,2.1045284399999997,-0.606121785,-1.19309967,-0.36503457600000006,-0.617758823,0.38506634,0.740128032,0.156228015,-0.15136222400000002,-0.26002937,0.363748278,,6.787878787878789,0,L26_NIRS-2019-09-06_006_trial01.txt,272.0
35,59.2,3.4710979600000003,2.1471095599999996,-0.549453065,-1.13378621,-0.34438772200000006,-0.6034450230000001,0.36825332599999994,0.7255462450000001,0.14554715199999999,-0.154475207,-0.262604415,0.35757082,,6.787878787878789,0,L26_NIRS-2019-09-06_006_trial01.txt,272.0
36,60.48,3.49935002,2.1378613,-0.537127341,-1.11077132,-0.316020798,-0.550386091,0.3509825969999999,0.71703019,0.13387999600000003,-0.169567476,-0.26400414800000005,0.361855007,,6.787878787878789,0,L26_NIRS-2019-09-06_006_trial01.txt,272.0
37,61.75999999999999,3.51431922,2.08120881,-0.565851119,-1.13149894,-0.299748583,-0.496944024,0.33504829799999997,0.726798473,0.133104186,-0.182822316,-0.264949144,0.362949771,,6.787878787878789,0,L26_NIRS-2019-09-06_006_trial01.txt,272.0
38,63.040000000000006,3.49142972,1.9876103999999999,-0.628986413,-1.19233876,-0.310257538,-0.47272903299999997,0.31528983899999996,0.749900285,0.145233222,-0.182099871,-0.265019658,0.35611653899999995,,6.787878787878789,0,L26_NIRS-2019-09-06_006_trial01.txt,272.0
39,64.32000000000001,3.4512762100000005,1.9024209499999998,-0.69423283,-1.25546074,-0.335357925,-0.4688723360000001,0.291929191,0.775458941,0.16399229499999998,-0.166045304,-0.26466455200000005,0.35337508900000003,,6.787878787878789,0,L26_NIRS-2019-09-06_006_trial01.txt,272.0
40,65.6,3.42933387,1.86479897,-0.713558415,-1.2756061699999997,-0.35720448499999996,-0.4840089529999999,0.27003254600000004,0.7919962469999999,0.186939154,-0.143733529,-0.26758273899999996,0.34483268200000006,,6.787878787878789,0,L26_NIRS-2019-09-06_006_trial01.txt,272.0
41,66.88,3.4275517,1.8914585599999998,-0.6682302790000001,-1.23697563,-0.36344759299999996,-0.5066394089999999,0.24765958800000004,0.788070337,0.204343075,-0.13148006800000003,-0.27470025899999995,0.32552743500000003,,6.787878787878789,0,L26_NIRS-2019-09-06_006_trial01.txt,272.0
42,68.16,3.43463315,1.9630436600000003,-0.578765004,-1.14826663,-0.360985487,-0.52691499,0.226102838,0.767052716,0.20853192499999995,-0.133680361,-0.287480425,0.29951670900000005,,6.787878787878789,0,L26_NIRS-2019-09-06_006_trial01.txt,272.0
43,69.44000000000001,3.44435992,2.03829075,-0.485978822,-1.06043342,-0.34914673500000004,-0.5335986239999999,0.208948132,0.7363244740000001,0.199976676,-0.15028561099999999,-0.302210255,0.27559993499999996,,6.787878787878789,0,L26_NIRS-2019-09-06_006_trial01.txt,272.0
44,70.72,3.4454511500000002,2.08555134,-0.42247618,-1.007453387,-0.34353794499999996,-0.530236237,0.198274264,0.7106968419999999,0.18691243600000002,-0.173124553,-0.317126592,0.25117083900000003,,6.787878787878789,0,L26_NIRS-2019-09-06_006_trial01.txt,272.0
45,71.99999999999999,3.4162162900000004,2.0776426199999998,-0.41380425,-1.0032187650000002,-0.35330811599999995,-0.518845843,0.194079969,0.702073707,0.176638326,-0.191609858,-0.32887939099999997,0.228161872,,6.787878787878789,0,L26_NIRS-2019-09-06_006_trial01.txt,272.0
46,73.27999999999999,3.36375521,2.0338935,-0.4500473080000001,-1.02894103,-0.366940829,-0.49719962500000003,0.19967285799999998,0.7136983559999999,0.172578853,-0.19810880999999997,-0.333989902,0.22233840900000001,,6.787878787878789,0,L26_NIRS-2019-09-06_006_trial01.txt,272.0
47,74.55999999999999,3.3167006999999997,1.9837908900000003,-0.48841369100000004,-1.04909143,-0.375195723,-0.48310670599999994,0.22377166799999998,0.7376567319999999,0.176059243,-0.19571231900000002,-0.33383191199999995,0.22623988700000003,,6.787878787878789,0,L26_NIRS-2019-09-06_006_trial01.txt,272.0
48,75.83999999999999,3.2704760199999994,1.9522397999999999,-0.49784178599999995,-1.04413888,-0.381510569,-0.48957160899999996,0.25533363699999995,0.7582322610000001,0.180634343,-0.19857398799999998,-0.33399871000000003,0.232705437,,6.787878787878789,0,L26_NIRS-2019-09-06_006_trial01.txt,272.0
49,77.11999999999999,3.21114456,1.9439922300000003,-0.479652987,-1.012310141,-0.4004606989999999,-0.527630887,0.28240424500000005,0.767566589,0.17975049899999998,-0.211822562,-0.34089398400000004,0.23504010899999997,,6.787878787878789,0,L26_NIRS-2019-09-06_006_trial01.txt,272.0
50,78.4,3.16376037,1.9657569899999998,-0.43758737400000003,-0.9674081680000001,-0.414878268,-0.5728095329999999,0.30229649799999997,0.7547941569999999,0.16860381900000002,-0.23868806200000003,-0.352018257,0.23404171399999996,,6.787878787878789,0,L26_NIRS-2019-09-06_006_trial01.txt,272.0
51,79.67999999999999,3.15043944,2.0162074199999998,-0.377405444,-0.911278686,-0.41447543099999995,-0.59613584,0.31265942,0.725493835,0.147735161,-0.273357688,-0.363869608,0.228750161,,6.787878787878789,0,L26_NIRS-2019-09-06_006_trial01.txt,272.0
52,80.96,3.1820023500000003,2.0794734699999995,-0.316369304,-0.8575311309999998,-0.399303856,-0.5867235550000001,0.309897258,0.6923272280000001,0.12363959899999999,-0.305659781,-0.373537258,0.219262901,,6.787878787878789,0,L26_NIRS-2019-09-06_006_trial01.txt,272.0
53,82.24,3.2413225799999994,2.1517727499999997,-0.261726788,-0.812501174,-0.36979875100000004,-0.5499596849999999,0.29394360799999997,0.6629086350000001,0.1039725127,-0.327629723,-0.376050615,0.213725481,,6.787878787878789,0,L26_NIRS-2019-09-06_006_trial01.txt,272.0
54,83.52000000000001,3.2964699299999998,2.22167959,-0.221057536,-0.787148415,-0.3393284230000001,-0.508914815,0.2751474749999999,0.633215097,0.0882831546,-0.3393186,-0.374085226,0.208518632,,6.787878787878789,0,L26_NIRS-2019-09-06_006_trial01.txt,272.0
55,84.8,3.3416919700000003,2.26685888,-0.20171085299999997,-0.7888004550000001,-0.32182367,-0.47501757400000005,0.250958419,0.606899027,0.0767281362,-0.34401115499999996,-0.37200311700000005,0.204350241,,6.787878787878789,0,L26_NIRS-2019-09-06_006_trial01.txt,272.0
56,86.08,3.3455350299999997,2.25244597,-0.22170268600000004,-0.832040993,-0.329179453,-0.4634315,0.22131446000000002,0.594361893,0.07225186659999999,-0.33843745999999997,-0.37157261,0.199929338,,6.787878787878789,0,L26_NIRS-2019-09-06_006_trial01.txt,272.0
57,87.36,3.3377596699999996,2.2057225799999998,-0.257412796,-0.892076724,-0.35974433299999997,-0.47459135100000005,0.19233890699999998,0.598127912,0.07967297250000001,-0.31985631400000003,-0.372371866,0.191559053,,6.787878787878789,0,L26_NIRS-2019-09-06_006_trial01.txt,272.0
58,88.63999999999999,3.3370708400000004,2.14378493,-0.282321168,-0.938249974,-0.391370629,-0.491692733,0.168070799,0.6175184969999999,0.09554213110000001,-0.29827662800000004,-0.3718282319999999,0.182146216,,6.787878787878789,0,L26_NIRS-2019-09-06_006_trial01.txt,272.0
59,89.91999999999999,3.3595447300000005,2.0967610100000003,-0.288479928,-0.9679377240000001,-0.40936005300000006,-0.503066463,0.145214707,0.6420317879999999,0.11232320600000001,-0.28247538099999997,-0.368703898,0.17820316500000002,,6.787878787878789,0,L26_NIRS-2019-09-06_006_trial01.txt,272.0
60,91.2,3.3868978999999997,2.0684442400000003,-0.283839078,-0.9951977040000001,-0.42044568899999996,-0.509541094,0.12061898800000001,0.6627392089999999,0.127618178,-0.272100224,-0.365856944,0.17486390899999998,,6.787878787878789,0,L26_NIRS-2019-09-06_006_trial01.txt,272.0
61,92.48,3.40799429,2.05734579,-0.279133799,-1.0236171600000001,-0.43017234000000004,-0.518333348,0.10207711859999999,0.674886904,0.13960046499999998,-0.265314167,-0.36535501000000004,0.167111821,,6.787878787878789,0,L26_NIRS-2019-09-06_006_trial01.txt,272.0
62,93.75999999999999,3.38126204,2.0309946400000003,-0.303237382,-1.05925976,-0.43200974,-0.52380708,0.08810451840000001,0.678423264,0.14317055699999998,-0.26453416999999996,-0.36234399500000003,0.168594681,,6.787878787878789,0,L26_NIRS-2019-09-06_006_trial01.txt,272.0
63,95.03999999999999,3.3023680399999997,1.97091304,-0.364088683,-1.1116481999999999,-0.424180125,-0.51452853,0.0807620873,0.677178092,0.13781788600000003,-0.265994682,-0.3558179550000001,0.1860741,,6.787878787878789,0,L26_NIRS-2019-09-06_006_trial01.txt,272.0
64,96.32,3.1789711,1.8872124499999998,-0.45416811900000004,-1.1741533199999998,-0.415238383,-0.499933385,0.07781486709999999,0.676933605,0.126537371,-0.265019203,-0.345120929,0.21677660799999998,,6.787878787878789,0,L26_NIRS-2019-09-06_006_trial01.txt,272.0
65,97.60000000000001,3.0576115000000006,1.7937151199999999,-0.5370499740000001,-1.23091201,-0.40431939100000003,-0.47849022,0.085010316,0.6799075880000002,0.11635825699999999,-0.26706155,-0.333724166,0.251109679,,6.787878787878789,0,L26_NIRS-2019-09-06_006_trial01.txt,272.0
66,98.88,2.96198499,1.7264527100000002,-0.594409945,-1.2777872699999997,-0.392559211,-0.460505314,0.0954085213,0.6811964049999999,0.10907131300000002,-0.27427333600000003,-0.32449301999999997,0.28079486600000003,,6.787878787878789,0,L26_NIRS-2019-09-06_006_trial01.txt,272.0
67,100.16,2.9202001300000004,1.69887838,-0.6130983499999999,-1.31532477,-0.38749462000000007,-0.44378147200000007,0.108029598,0.673408426,0.103979967,-0.28497334399999996,-0.321904585,0.294974224,,6.787878787878789,0,L26_NIRS-2019-09-06_006_trial01.txt,272.0
68,101.44000000000001,2.95033346,1.7169706599999999,-0.5895490999999999,-1.33749995,-0.40091861800000006,-0.44385947400000003,0.12291496899999999,0.661075972,0.10597272500000002,-0.295860536,-0.330853361,0.282679376,,6.787878787878789,0,L26_NIRS-2019-09-06_006_trial01.txt,272.0
69,102.72,3.03337429,1.7658303,-0.5328585370000001,-1.32058439,-0.42114104900000005,-0.45216132700000006,0.13637181799999998,0.648117513,0.111029402,-0.30357829300000005,-0.344888941,0.25292126099999995,,6.787878787878789,0,L26_NIRS-2019-09-06_006_trial01.txt,272.0
70,103.99999999999997,3.1194394999999995,1.8115070099999997,-0.471687454,-1.2701316999999999,-0.430486375,-0.4557864589999999,0.13426835,0.63824348,0.11579597099999998,-0.304439972,-0.355411829,0.229707666,,6.787878787878789,0,L26_NIRS-2019-09-06_006_trial01.txt,272.0
71,105.28,3.1594805499999996,1.81448688,-0.44134182200000005,-1.22212692,-0.42980027000000004,-0.45115804,0.11615658899999999,0.637087015,0.11984384699999999,-0.297746284,-0.3581149360000001,0.22439013900000004,,6.787878787878789,0,L26_NIRS-2019-09-06_006_trial01.txt,272.0
72,106.56000000000002,3.1384247700000003,1.7711206000000002,-0.44923747599999997,-1.20043171,-0.432205544,-0.449668004,0.09211494949999999,0.6478273339999999,0.127510183,-0.281674076,-0.355391355,0.22979771599999999,,6.787878787878789,0,L26_NIRS-2019-09-06_006_trial01.txt,272.0
73,107.83999999999999,3.06965355,1.7137550299999997,-0.48026888100000004,-1.2046290699999997,-0.43426184999999995,-0.45629691699999997,0.06921130289999998,0.659960766,0.137284601,-0.260684437,-0.34827202599999996,0.23978129799999998,,6.787878787878789,0,L26_NIRS-2019-09-06_006_trial01.txt,272.0
74,109.11999999999998,2.9890168699999995,1.6706282000000001,-0.5142664929999999,-1.21705333,-0.421844224,-0.4560436599999999,0.0547197201,0.6649605270000001,0.141857623,-0.24163121599999998,-0.339394649,0.256277782,,6.787878787878789,0,L26_NIRS-2019-09-06_006_trial01.txt,272.0
75,110.4,2.9591716500000005,1.6641794699999999,-0.522560549,-1.22436254,-0.40194093,-0.448237831,0.0553929377,0.662143619,0.14360968100000002,-0.232700153,-0.33708631200000005,0.26477613800000005,,6.787878787878789,0,L26_NIRS-2019-09-06_006_trial01.txt,272.0
76,111.68000000000002,2.9806433300000004,1.6876992000000002,-0.508425704,-1.2230005,-0.388005858,-0.442994181,0.0632402397,0.6588588099999999,0.14315127700000002,-0.23092764999999998,-0.3412632480000001,0.25935748299999994,,6.787878787878789,0,L26_NIRS-2019-09-06_006_trial01.txt,272.0
77,112.96,3.01168599,1.7204683499999998,-0.486068294,-1.2226896699999998,-0.381379096,-0.441002416,0.07463312550000001,0.657537319,0.14183879100000002,-0.235522913,-0.344664942,0.251625663,,6.787878787878789,0,L26_NIRS-2019-09-06_006_trial01.txt,272.0
78,114.24000000000001,3.02352536,1.7413658300000001,-0.4700387650000001,-1.2337278399999998,-0.379957705,-0.43917090099999995,0.0835469804,0.65778541,0.14026337,-0.24618188400000002,-0.345866294,0.254169514,,6.787878787878789,0,L26_NIRS-2019-09-06_006_trial01.txt,272.0
79,115.52000000000001,2.99595182,1.75324965,-0.46553013499999996,-1.2522307899999998,-0.38159243099999995,-0.436089708,0.0884314681,0.654151847,0.13581599900000002,-0.25886481899999997,-0.345608024,0.26617626000000005,,6.787878787878789,0,L26_NIRS-2019-09-06_006_trial01.txt,272.0
80,116.8,2.9582475199999996,1.7735189599999999,-0.459442898,-1.26114252,-0.383712066,-0.43143036299999993,0.09280815569999998,0.6374757270000001,0.12395394699999998,-0.274713573,-0.344832154,0.281027784,,6.787878787878789,0,L26_NIRS-2019-09-06_006_trial01.txt,272.0
81,118.08,2.9501947600000005,1.80498473,-0.44121869,-1.23938452,-0.375086207,-0.413304294,0.0966307283,0.612635432,0.10493942190000001,-0.28942207,-0.344908089,0.294154537,,6.787878787878789,0,L26_NIRS-2019-09-06_006_trial01.txt,272.0
82,119.35999999999999,2.9651394599999996,1.8496224199999998,-0.399416486,-1.16704457,-0.34203965999999997,-0.382732803,0.09197832090000001,0.594249414,0.09019939559999998,-0.294122415,-0.342731511,0.312761202,,6.787878787878789,0,L26_NIRS-2019-09-06_006_trial01.txt,272.0
83,120.63999999999999,2.9866757399999995,1.8764442300000002,-0.35582518900000004,-1.09230516,-0.311729507,-0.353209193,0.084646563,0.585690241,0.0842916099,-0.293958905,-0.343735708,0.32944394299999996,,6.787878787878789,0,L26_NIRS-2019-09-06_006_trial01.txt,272.0
84,121.92,2.99457957,1.86888526,-0.33623653100000006,-1.0573801,-0.310695126,-0.33912288699999993,0.08171291259999999,0.5854995539999999,0.087060017,-0.29172504200000005,-0.348046507,0.341771238,,6.787878787878789,0,L26_NIRS-2019-09-06_006_trial01.txt,272.0
85,123.2,2.97133024,1.82908755,-0.3523650609999999,-1.07005765,-0.332210756,-0.33743468800000004,0.08211320279999998,0.59101868,0.09536858270000001,-0.288602852,-0.353973694,0.3509001990000001,,6.787878787878789,0,L26_NIRS-2019-09-06_006_trial01.txt,272.0
86,124.47999999999999,2.9287739999999998,1.7807129500000003,-0.39263851699999996,-1.11113455,-0.355048872,-0.33673407600000005,0.08258597,0.595604633,0.10375597700000001,-0.284481292,-0.356485826,0.36134732299999994,,6.787878787878789,0,L26_NIRS-2019-09-06_006_trial01.txt,272.0
87,125.75999999999999,2.9121879799999997,1.75608367,-0.426758566,-1.15433645,-0.37342060600000004,-0.33203038999999995,0.086368062,0.5908884620000001,0.10810903300000001,-0.28644170199999996,-0.35955204799999996,0.3626132939999999,,6.787878787878789,0,L26_NIRS-2019-09-06_006_trial01.txt,272.0
88,127.03999999999999,2.93719812,1.7584243400000001,-0.43927615300000006,-1.17705424,-0.382062788,-0.32188061199999995,0.08834339059999999,0.580688842,0.10662969399999997,-0.29185291,-0.36319461900000005,0.35205556200000004,,6.787878787878789,0,L26_NIRS-2019-09-06_006_trial01.txt,272.0
89,128.32,2.9672227299999996,1.78822993,-0.419725065,-1.1587545900000003,-0.370838525,-0.313802848,0.07675150989999999,0.57455684,0.105408172,-0.29073182,-0.362817415,0.338983304,,6.787878787878789,0,L26_NIRS-2019-09-06_006_trial01.txt,272.0
90,129.6,3.02455087,1.8299734699999999,-0.36539742499999994,-1.10937184,-0.3646602100000001,-0.318981266,0.0639710058,0.575687573,0.10844466999999999,-0.28464079500000006,-0.36667289,0.314915186,,6.787878787878789,0,L26_NIRS-2019-09-06_006_trial01.txt,272.0
91,130.87999999999997,3.08780025,1.8634287600000004,-0.30075920199999995,-1.05074597,-0.370868531,-0.33784907999999997,0.050651775999999996,0.58465654,0.115831306,-0.276599833,-0.374405391,0.286466671,,6.787878787878789,0,L26_NIRS-2019-09-06_006_trial01.txt,272.0
92,132.16,3.12333144,1.90730966,-0.22570351300000002,-0.975283915,-0.378919965,-0.358996868,0.043373908100000004,0.5981957020000002,0.125310074,-0.27136078300000005,-0.38334937999999996,0.26093956500000004,,6.787878787878789,0,L26_NIRS-2019-09-06_006_trial01.txt,272.0
93,133.44,3.15248864,1.97665785,-0.13659782309999996,-0.8706206219999999,-0.37130587400000004,-0.35470698900000003,0.0464065268,0.605431995,0.133578985,-0.276496797,-0.39303386900000004,0.24315805199999999,,6.787878787878789,0,L26_NIRS-2019-09-06_006_trial01.txt,272.0
94,134.72,3.21207335,2.07029311,-0.034441455870000005,-0.7395001590000001,-0.32616409199999996,-0.292605711,0.057191115199999996,0.59601861,0.133172805,-0.29491932300000007,-0.40445670399999994,0.23582016700000002,,6.787878787878789,0,L26_NIRS-2019-09-06_006_trial01.txt,272.0
95,136.0,3.29128792,2.1493518000000003,0.04205261910000001,-0.631721501,-0.257528346,-0.190545811,0.0631422667,0.5742393060000001,0.11909323499999999,-0.323063177,-0.4135603,0.23435918500000003,,6.787878787878789,0,L26_NIRS-2019-09-06_006_trial01.txt,272.0
96,137.28,3.3584924899999997,2.17577472,0.061976176400000006,-0.6061743529999999,-0.202866202,-0.10055752519999998,0.05892958420000001,0.554294455,0.1003978397,-0.3478275619999999,-0.41945864000000005,0.228034102,,6.787878787878789,0,L26_NIRS-2019-09-06_006_trial01.txt,272.0
97,138.56,3.3578383699999996,2.11941018,0.010727445088,-0.687655348,-0.20373096799999998,-0.07588826480000001,0.034303399400000004,0.545021286,0.0908307036,-0.3584029,-0.42477025600000007,0.21106268,,6.787878787878789,0,L26_NIRS-2019-09-06_006_trial01.txt,272.0
98,139.84,3.2938824099999997,1.9940397399999998,-0.0963509875,-0.843691503,-0.26199793800000004,-0.12325235539999999,0.0028760439899999995,0.552440963,0.0965594102,-0.351797923,-0.42900978,0.19099399199999997,,6.787878787878789,0,L26_NIRS-2019-09-06_006_trial01.txt,272.0
99,141.11999999999998,3.1678476899999994,1.85915976,-0.21769764400000002,-1.0152731769999999,-0.35183596699999997,-0.21740862,-0.0181234837,0.572259021,0.11443120999999998,-0.332369295,-0.42964243199999996,0.177972951,,6.787878787878789,0,L26_NIRS-2019-09-06_006_trial01.txt,272.0
100,142.4,3.0571153899999994,1.77565739,-0.290605149,-1.1253941600000001,-0.42989567599999995,-0.30348555699999996,-0.014115757680000002,0.590484035,0.138426486,-0.31093814599999997,-0.429753177,0.176938439,,6.787878787878789,0,L26_NIRS-2019-09-06_006_trial01.txt,272.0
101,143.68,3.01282624,1.76885109,-0.292129964,-1.13983541,-0.468409782,-0.34128163,0.0048353511750000005,0.5965070560000001,0.157071734,-0.293999436,-0.43183231599999994,0.182924676,,6.787878787878789,0,L26_NIRS-2019-09-06_006_trial01.txt,272.0
102,144.95999999999998,3.0746733599999994,1.8362028,-0.22715265799999998,-1.0745765299999999,-0.461503281,-0.32763080600000005,0.0336933572,0.5926148509999999,0.16506346499999996,-0.286627756,-0.4348719279999999,0.18759547199999999,,6.787878787878789,0,L26_NIRS-2019-09-06_006_trial01.txt,272.0
103,146.23999999999998,3.2078062499999995,1.9292713000000004,-0.1268827618,-0.981969664,-0.43812656499999997,-0.29781733,0.062175679299999995,0.591194349,0.16987626699999997,-0.28577806299999997,-0.44036542600000006,0.18056392100000002,,6.787878787878789,0,L26_NIRS-2019-09-06_006_trial01.txt,272.0
104,147.52,3.3349047300000003,2.0011652900000003,-0.03044712968,-0.9004418200000002,-0.425622762,-0.28036492300000004,0.07963506819999999,0.5923385210000001,0.175906438,-0.289308352,-0.44986593800000013,0.16026547500000002,,6.787878787878789,0,L26_NIRS-2019-09-06_006_trial01.txt,272.0
105,148.8,3.4327859,2.0412038700000004,0.0374025508,-0.8450604759999999,-0.43593816700000004,-0.287811276,0.08597601600000002,0.593866961,0.181481981,-0.29525679,-0.4617864770000001,0.13386756500000002,,6.787878787878789,0,L26_NIRS-2019-09-06_006_trial01.txt,272.0
106,150.07999999999998,3.4884246699999997,2.06121997,0.0739297773,-0.8136139360000001,-0.461878873,-0.309214889,0.08490058409999998,0.5891440210000001,0.1829168,-0.304398046,-0.47093259600000004,0.10778688080000001,,6.787878787878789,0,L26_NIRS-2019-09-06_006_trial01.txt,272.0
107,151.35999999999999,3.5193079,2.0867430000000002,0.11109478079999999,-0.7784700250000001,-0.476667396,-0.32320105899999996,0.0795754949,0.5751352730000001,0.178445406,-0.31933605600000003,-0.478052393,0.0896485612,,6.787878787878789,0,L26_NIRS-2019-09-06_006_trial01.txt,272.0
108,152.64000000000001,3.5523485399999997,2.14930067,0.180343775,-0.712368871,-0.4800999760000001,-0.32843929000000005,0.0673643891,0.551893879,0.17113421,-0.336635012,-0.48763760500000003,0.07039950269999999,,6.787878787878789,0,L26_NIRS-2019-09-06_006_trial01.txt,272.0
109,153.92000000000002,3.5824651899999993,2.21959641,0.25103624,-0.6409060400000002,-0.455178055,-0.31886839999999994,0.0457538963,0.52053697,0.15359558,-0.35651130400000003,-0.49005700399999996,0.0657649878,,6.787878787878789,0,L26_NIRS-2019-09-06_006_trial01.txt,272.0
110,155.2,3.5917170299999994,2.25881966,0.28652474400000005,-0.58914962,-0.41240529000000004,-0.30446596400000003,0.013560768243000001,0.499020181,0.127895478,-0.36850339399999993,-0.480007897,0.0786638278,,6.787878787878789,0,L26_NIRS-2019-09-06_006_trial01.txt,272.0
111,156.47999999999996,3.5792362599999996,2.25027291,0.28802592699999996,-0.5657324930000001,-0.375685751,-0.293922195,-0.01897643004,0.49029207,0.10566731340000002,-0.369621757,-0.46495504600000004,0.0970104525,,6.787878787878789,0,L26_NIRS-2019-09-06_006_trial01.txt,272.0
112,157.76000000000002,3.5397403700000005,2.1901288699999997,0.254279851,-0.587161878,-0.36486921000000005,-0.29594546000000005,-0.0452469808,0.49315214900000004,0.09385515629999999,-0.36055348499999995,-0.452721409,0.113876647,,6.787878787878789,0,L26_NIRS-2019-09-06_006_trial01.txt,272.0
113,159.04000000000002,3.45988319,2.08418785,0.18133698000000004,-0.662303087,-0.38245177799999996,-0.309178725,-0.062278200000000006,0.502424629,0.092403345,-0.347875837,-0.444209938,0.12299750599999999,,6.787878787878789,0,L26_NIRS-2019-09-06_006_trial01.txt,272.0
114,160.32,3.3611252499999997,1.9699963100000002,0.09546204220000001,-0.771060249,-0.41209007700000005,-0.32939942,-0.06250682029999999,0.51673243,0.1009398875,-0.337329242,-0.44186123200000005,0.121244182,,6.787878787878789,0,L26_NIRS-2019-09-06_006_trial01.txt,272.0
115,161.6,3.2855249100000004,1.88338462,0.023781026013,-0.887530447,-0.444257873,-0.362870933,-0.0445292039,0.5278962249999999,0.118714571,-0.333486809,-0.445146468,0.10937314499999999,,6.787878787878789,0,L26_NIRS-2019-09-06_006_trial01.txt,272.0
116,162.87999999999997,3.2018897,1.8026631699999995,-0.05818289807,-1.017780991,-0.463915514,-0.384411092,-0.025470315900000002,0.528194693,0.130211945,-0.33888593,-0.443832338,0.102464574,,6.787878787878789,0,L26_NIRS-2019-09-06_006_trial01.txt,272.0
117,164.16,3.07833184,1.7106079,-0.189886748,-1.17980859,-0.482749732,-0.39851966400000005,-0.0217734176,0.5228049539999999,0.121469103,-0.35159513300000006,-0.431534752,0.10882156400000001,,6.787878787878789,0,L26_NIRS-2019-09-06_006_trial01.txt,272.0
118,165.44,2.9787298100000004,1.64172654,-0.309596904,-1.3184095100000002,-0.5148915799999999,-0.411558403,-0.020463505,0.5155145170000001,0.10719437000000001,-0.36443282899999996,-0.41879413200000004,0.110115889,,6.787878787878789,0,L26_NIRS-2019-09-06_006_trial01.txt,272.0
119,166.72,2.9146457500000005,1.5963338400000002,-0.39370670100000005,-1.4082816200000001,-0.548912424,-0.41218247299999994,-0.016975768999999998,0.5097653790000001,0.09522042030000001,-0.37126959400000004,-0.409942401,0.107526744,,6.787878787878789,0,L26_NIRS-2019-09-06_006_trial01.txt,272.0
120,168.0,2.9002889400000003,1.5899717199999999,-0.41788863899999995,-1.42341583,-0.557051493,-0.37829758599999996,-0.008378267290000001,0.50734077,0.0883967896,-0.369126854,-0.404974488,0.108981433,,6.787878787878789,0,L26_NIRS-2019-09-06_006_trial01.txt,272.0
121,169.28,2.9239057199999996,1.63780381,-0.36869912199999993,-1.3534574400000001,-0.5323325920000002,-0.321426081,0.0017039127090000001,0.508908866,0.0869384776,-0.36054464100000005,-0.40517773100000004,0.11234250599999998,,6.787878787878789,0,L26_NIRS-2019-09-06_006_trial01.txt,272.0
122,170.56,2.98262917,1.7135289099999997,-0.269591851,-1.23592016,-0.49418302899999994,-0.270638513,0.00793829096,0.512082456,0.0939552478,-0.352167316,-0.411548376,0.12046542199999999,,6.787878787878789,0,L26_NIRS-2019-09-06_006_trial01.txt,272.0
123,171.84,3.02338439,1.76386991,-0.172886857,-1.12745348,-0.47164313900000004,-0.23949845100000006,0.009980519790000001,0.5160757389999999,0.106568619,-0.345885702,-0.42297044899999997,0.12466574500000001,,6.787878787878789,0,L26_NIRS-2019-09-06_006_trial01.txt,272.0
124,173.12,3.0012339600000004,1.75672791,-0.14472219700000002,-1.10778104,-0.49537548499999995,-0.2492517,0.00049738749,0.513116715,0.11534246399999999,-0.349984985,-0.435372219,0.12436451900000003,,6.787878787878789,0,L26_NIRS-2019-09-06_006_trial01.txt,272.0
125,174.4,2.932085,1.70196593,-0.18115067099999999,-1.16802721,-0.569846858,-0.31175210900000005,-0.00424365499,0.5091290660000001,0.123479647,-0.355932252,-0.444718316,0.10571722050000001,,6.787878787878789,0,L26_NIRS-2019-09-06_006_trial01.txt,272.0
126,175.68,2.85787101,1.6235429800000003,-0.248415022,-1.26431639,-0.6525759250000001,-0.386695579,0.003780847692,0.508470609,0.133515255,-0.35640017300000004,-0.4462965230000001,0.0744151318,,6.787878787878789,0,L26_NIRS-2019-09-06_006_trial01.txt,272.0
127,176.95999999999998,2.8118611299999996,1.5652811500000001,-0.29092929500000003,-1.31855171,-0.7000262169999999,-0.43359086199999997,0.02151381,0.516635588,0.148457357,-0.346085178,-0.439846263,0.0443855925,,6.787878787878789,0,L26_NIRS-2019-09-06_006_trial01.txt,272.0
128,178.23999999999998,2.7982069800000007,1.5490451899999997,-0.27590462799999993,-1.2970046,-0.6915440409999999,-0.435256215,0.042715715700000004,0.534759525,0.16335513,-0.32972629000000003,-0.430094827,0.0243841814,,6.787878787878789,0,L26_NIRS-2019-09-06_006_trial01.txt,272.0
129,179.51999999999998,2.81504506,1.58047037,-0.21159250699999999,-1.21619772,-0.651995551,-0.411477589,0.0576083163,0.56086753,0.17679429,-0.310481235,-0.42465057800000006,0.014898390000000001,,6.787878787878789,0,L26_NIRS-2019-09-06_006_trial01.txt,272.0
130,180.79999999999998,2.86208223,1.62790852,-0.13277740850000003,-1.11870371,-0.61173271,-0.38199980299999997,0.0684055994,0.5824273729999999,0.186835841,-0.29448869899999996,-0.42382376799999993,0.011556438,,6.787878787878789,0,L26_NIRS-2019-09-06_006_trial01.txt,272.0
131,182.07999999999998,2.9432655399999996,1.68807925,-0.057750710700000006,-1.02934614,-0.5895522740000001,-0.35858651399999997,0.0680423517,0.596081721,0.195563769,-0.284263661,-0.428598429,0.012144439300000002,,6.787878787878789,0,L26_NIRS-2019-09-06_006_trial01.txt,272.0
132,183.35999999999999,3.0296470300000005,1.7371330399999998,0.00346319792,-0.980682161,-0.6016586309999999,-0.347752098,0.05847356159999999,0.595905432,0.20807164,-0.283873119,-0.44099736599999995,0.006835178472000001,,6.787878787878789,0,L26_NIRS-2019-09-06_006_trial01.txt,272.0
133,184.64000000000001,3.10866474,1.7769076599999998,0.0655091208,-0.9419959309999999,-0.6377193379999999,-0.349748832,0.044035671600000006,0.5834347149999999,0.22420558299999999,-0.28543652099999994,-0.458092379,-0.01186666344,,6.787878787878789,0,L26_NIRS-2019-09-06_006_trial01.txt,272.0
134,185.92000000000002,3.1597180899999997,1.7993747699999996,0.1308531047,-0.8924961070000001,-0.673134233,-0.355137492,0.0246383616,0.565593846,0.239613349,-0.284706269,-0.47470760700000003,-0.0385292637,,6.787878787878789,0,L26_NIRS-2019-09-06_006_trial01.txt,272.0
135,187.2,3.1927986499999994,1.8155494600000002,0.204528284,-0.8258707769999999,-0.678676868,-0.347026168,0.004624554345,0.5520257580000001,0.25046546999999997,-0.281900405,-0.48810100399999995,-0.0616174891,,6.787878787878789,0,L26_NIRS-2019-09-06_006_trial01.txt,272.0
136,188.48000000000002,3.2128068799999996,1.8398934300000005,0.266891021,-0.764159218,-0.6626926259999999,-0.329449904,-0.010035827479999999,0.53986054,0.251450088,-0.278851592,-0.49638462699999997,-0.08219995110000002,,6.787878787878789,0,L26_NIRS-2019-09-06_006_trial01.txt,272.0
137,189.76,3.25619557,1.89206304,0.33025726899999996,-0.6958784749999999,-0.6294165199999999,-0.298262143,-0.020052815499999998,0.522418329,0.241953621,-0.277027059,-0.498994483,-0.09934863660000001,,6.787878787878789,0,L26_NIRS-2019-09-06_006_trial01.txt,272.0
138,191.04,3.3098509300000005,1.9568336299999998,0.379963357,-0.627452683,-0.592462061,-0.267006928,-0.033159326700000005,0.50094028,0.22285548800000005,-0.280164008,-0.49838467499999994,-0.11402967,,6.787878787878789,0,L26_NIRS-2019-09-06_006_trial01.txt,272.0
139,192.31999999999996,3.3561140799999998,2.0079489,0.420476043,-0.574949392,-0.566687527,-0.25051692699999994,-0.050439140400000006,0.474018345,0.20356081400000003,-0.295810358,-0.5013999200000001,-0.13314873899999996,,6.787878787878789,0,L26_NIRS-2019-09-06_006_trial01.txt,272.0
140,193.6,3.34057726,2.01738296,0.42966254299999995,-0.5505029990000001,-0.568487252,-0.274006699,-0.0682221455,0.449404161,0.18463499600000002,-0.316553235,-0.50535164,-0.15769715099999998,,6.787878787878789,0,L26_NIRS-2019-09-06_006_trial01.txt,272.0
141,194.88000000000002,3.2751502599999993,1.9833433400000005,0.405864664,-0.5646002929999999,-0.586086369,-0.32397946400000005,-0.07999437029999999,0.435989508,0.16657514900000003,-0.336015182,-0.5080890210000001,-0.18148681300000002,,6.787878787878789,0,L26_NIRS-2019-09-06_006_trial01.txt,272.0
142,196.16,3.19253527,1.9392506899999997,0.3690866279999999,-0.593450039,-0.603739941,-0.37228492999999996,-0.07840042529999999,0.439904616,0.153505897,-0.350049116,-0.5090332530000001,-0.19781393000000003,,6.787878787878789,0,L26_NIRS-2019-09-06_006_trial01.txt,272.0
143,197.44,3.1309073399999994,1.9117056399999999,0.33726713,-0.6195210359999999,-0.6103270399999999,-0.40129854099999995,-0.06182962930000001,0.45378477500000003,0.147275147,-0.35715254899999993,-0.5065647209999999,-0.20402733300000003,,6.787878787878789,0,L26_NIRS-2019-09-06_006_trial01.txt,272.0
144,198.72,3.1143712999999997,1.9235872800000002,0.34124344300000004,-0.6153794470000001,-0.601806867,-0.40886035,-0.040621726799999994,0.467720848,0.147269778,-0.35426047800000005,-0.5050690409999999,-0.20198774200000003,,6.787878787878789,0,L26_NIRS-2019-09-06_006_trial01.txt,272.0
145,200.0,3.12454076,1.9529108700000002,0.36770119100000004,-0.588807283,-0.5874665640000001,-0.405083982,-0.0282045634,0.4719979650000001,0.148142866,-0.347561978,-0.5058509269999999,-0.19704264800000001,,6.787878787878789,0,L26_NIRS-2019-09-06_006_trial01.txt,272.0
146,201.28,3.1732493899999996,1.9940952099999998,0.425667729,-0.519185597,-0.5611933410000001,-0.39436121300000004,-0.027283796000000006,0.46787259400000003,0.14873452199999998,-0.342716533,-0.508779647,-0.196411148,,6.787878787878789,0,L26_NIRS-2019-09-06_006_trial01.txt,272.0
147,202.55999999999997,3.22418427,2.01936829,0.47733274299999995,-0.44937812499999996,-0.534731142,-0.385141654,-0.038022745000000004,0.45809552699999995,0.14419703199999998,-0.343574743,-0.5118734760000001,-0.200502584,,6.787878787878789,0,L26_NIRS-2019-09-06_006_trial01.txt,272.0
148,203.84,3.2724375200000004,2.02175692,0.49934947,-0.41866181300000005,-0.5141035689999999,-0.36305296400000003,-0.052985125300000005,0.4510105959999999,0.13563506,-0.34891316799999994,-0.514442339,-0.20642560299999996,,6.787878787878789,0,L26_NIRS-2019-09-06_006_trial01.txt,272.0
149,205.12000000000003,3.2922259100000004,1.99303374,0.46619971200000004,-0.452691837,-0.510037752,-0.327585006,-0.0661848938,0.453040619,0.128908721,-0.356279642,-0.515436444,-0.212704273,,6.787878787878789,0,L26_NIRS-2019-09-06_006_trial01.txt,272.0
150,206.4,3.2823969699999997,1.93310178,0.37845580199999995,-0.5537879960000002,-0.5250120039999999,-0.297388438,-0.06953231350000001,0.465426633,0.13325591899999997,-0.358372928,-0.513716897,-0.217404865,,6.787878787878789,0,L26_NIRS-2019-09-06_006_trial01.txt,272.0
151,207.67999999999998,3.22517826,1.8542915599999996,0.26351765400000005,-0.688243239,-0.559487331,-0.293763439,-0.0680567323,0.48291231800000006,0.148067063,-0.351223809,-0.512039033,-0.2220416,,6.787878787878789,0,L26_NIRS-2019-09-06_006_trial01.txt,272.0
152,208.95999999999998,3.1464190100000002,1.7979779999999999,0.16875296300000003,-0.792696678,-0.5915407640000001,-0.311490628,-0.06536485880000001,0.49850694800000006,0.166805594,-0.33564086699999995,-0.508297297,-0.22047673799999998,,6.787878787878789,0,L26_NIRS-2019-09-06_006_trial01.txt,272.0
153,210.23999999999995,3.07415084,1.7876827400000004,0.13059205899999998,-0.816834267,-0.6050707169999999,-0.342182521,-0.061113042900000004,0.5078246679999999,0.180853758,-0.32074139,-0.504364582,-0.21446579899999998,,6.787878787878789,0,L26_NIRS-2019-09-06_006_trial01.txt,272.0
154,211.51999999999998,3.05249636,1.84508486,0.168256027,-0.74920596,-0.598620759,-0.374810033,-0.0531696901,0.5031222630000001,0.183528393,-0.317613317,-0.502764309,-0.20586739200000004,,6.787878787878789,0,L26_NIRS-2019-09-06_006_trial01.txt,272.0
155,212.80000000000004,3.10963528,1.9707212299999999,0.271829379,-0.610767413,-0.564401892,-0.36897350000000007,-0.0407486726,0.487689825,0.17107210700000003,-0.331729925,-0.502359639,-0.19612365999999998,,6.787878787878789,0,L26_NIRS-2019-09-06_006_trial01.txt,272.0
156,214.08,3.2681627499999997,2.1386359500000003,0.39537604600000004,-0.448428929,-0.5002705649999999,-0.297125663,-0.023616297,0.4702267910000001,0.149707129,-0.362880122,-0.502146089,-0.18736678499999998,,6.787878787878789,0,L26_NIRS-2019-09-06_006_trial01.txt,272.0
157,215.35999999999999,3.4728253200000005,2.3009821500000003,0.490414601,-0.313834782,-0.42618806200000003,-0.189980576,-0.005016615280000001,0.46228601699999994,0.129921958,-0.396935628,-0.502389816,-0.18713599899999997,,6.787878787878789,0,L26_NIRS-2019-09-06_006_trial01.txt,272.0
158,216.64000000000001,3.6567881499999997,2.41827872,0.5393413159999999,-0.229270032,-0.36358785599999993,-0.08474264039999999,0.009578119690000001,0.45800296500000004,0.115458272,-0.426518552,-0.5030356389999999,-0.19526571199999998,,6.787878787878789,0,L26_NIRS-2019-09-06_006_trial01.txt,272.0
159,217.92,3.75086297,2.4592135099999997,0.536204897,-0.200606428,-0.329939689,-0.0236409648,0.013255242700000003,0.453482522,0.10596635799999998,-0.44461708200000005,-0.502213627,-0.20701709700000004,,6.787878787878789,0,L26_NIRS-2019-09-06_006_trial01.txt,272.0
160,219.2,3.74141914,2.40344014,0.49583816399999997,-0.226155591,-0.332087825,-0.026351027500000002,0.0049281756315,0.450375116,0.102405163,-0.44721868200000003,-0.5002887819999999,-0.219432078,,6.787878787878789,0,L26_NIRS-2019-09-06_006_trial01.txt,272.0
161,220.48000000000002,3.6432992200000003,2.2927454999999997,0.440959819,-0.293849281,-0.371952119,-0.0979706603,-0.019498716690000004,0.45918658900000003,0.10947328899999997,-0.42990824400000005,-0.4961816600000001,-0.230690135,,6.787878787878789,0,L26_NIRS-2019-09-06_006_trial01.txt,272.0
162,221.76,3.5349377000000004,2.1916231699999997,0.395887818,-0.339514184,-0.42554504,-0.190702315,-0.0554908996,0.47488793000000007,0.124093945,-0.39740916500000006,-0.491861843,-0.240762915,,6.787878787878789,0,L26_NIRS-2019-09-06_006_trial01.txt,272.0
163,223.04000000000002,3.4686685699999997,2.12766299,0.388094164,-0.346025594,-0.46376723700000005,-0.26227468800000003,-0.08563898140000001,0.48860484899999995,0.141112116,-0.36570609200000004,-0.48926264399999997,-0.245697184,,6.787878787878789,0,L26_NIRS-2019-09-06_006_trial01.txt,272.0
164,224.32000000000002,3.4008460499999997,2.08314147,0.39235059399999994,-0.337938901,-0.48600039300000003,-0.3069863539999999,-0.11179929,0.49902429900000006,0.15271717,-0.3435959460000001,-0.488660741,-0.245327127,,6.787878787878789,0,L26_NIRS-2019-09-06_006_trial01.txt,272.0
165,225.6,3.32751764,2.0552917600000002,0.40125581600000004,-0.318667691,-0.491545056,-0.324955426,-0.12398729900000001,0.49845807799999997,0.154525042,-0.336451442,-0.48904983,-0.23574700799999998,,6.787878787878789,0,L26_NIRS-2019-09-06_006_trial01.txt,272.0
166,226.87999999999997,3.22990219,2.0179535900000003,0.394657956,-0.31920735499999997,-0.49585399700000005,-0.337295514,-0.125538616,0.47532632799999996,0.14330220100000002,-0.351387044,-0.4900421680000001,-0.220777076,,6.787878787878789,0,L26_NIRS-2019-09-06_006_trial01.txt,272.0
167,228.16,3.13481388,1.9764780300000002,0.37727765399999996,-0.34785224200000003,-0.506922708,-0.354874081,-0.11862508599999999,0.44286381299999994,0.12449960800000001,-0.37836060800000004,-0.49235405600000004,-0.20530361100000002,,6.787878787878789,0,L26_NIRS-2019-09-06_006_trial01.txt,272.0
168,229.44,3.05237305,1.93961842,0.343226578,-0.419282761,-0.521657797,-0.372703886,-0.11082082499999998,0.41867835500000006,0.107354155,-0.403381016,-0.489940916,-0.18914165400000002,,6.787878787878789,0,L26_NIRS-2019-09-06_006_trial01.txt,272.0
169,230.71999999999997,3.0336088699999997,1.9459845299999998,0.311590825,-0.47177684200000003,-0.5291128220000001,-0.376335199,-0.1031874709,0.406641967,0.0980285737,-0.41556726,-0.484186522,-0.173274325,,6.787878787878789,0,L26_NIRS-2019-09-06_006_trial01.txt,272.0
170,232.0,3.05382582,1.9715144599999999,0.307364048,-0.5035625249999999,-0.523888308,-0.381100245,-0.0979819411,0.39436797799999995,0.0930671764,-0.42247209799999996,-0.477910878,-0.15990987699999998,,6.787878787878789,0,L26_NIRS-2019-09-06_006_trial01.txt,272.0
171,233.28000000000003,3.0716398700000003,2.00305933,0.32437637199999997,-0.518400245,-0.516721984,-0.39261133299999995,-0.10656588510000001,0.3812805139999999,0.0872437283,-0.42841347900000004,-0.47423516,-0.147511467,,6.787878787878789,0,L26_NIRS-2019-09-06_006_trial01.txt,272.0
172,234.56,3.07756329,2.03682512,0.359544701,-0.492212565,-0.506916192,-0.40086955199999996,-0.128651554,0.361392132,0.07396196560000001,-0.434658903,-0.47374306200000005,-0.136329643,,6.787878787878789,0,L26_NIRS-2019-09-06_006_trial01.txt,272.0
173,235.84000000000006,3.0920240100000003,2.0622199,0.39570534199999996,-0.441475229,-0.4937780620000001,-0.39648157600000006,-0.15882382,0.33965297600000005,0.0560987659,-0.445414147,-0.47782602900000004,-0.135534267,,6.787878787878789,0,L26_NIRS-2019-09-06_006_trial01.txt,272.0
174,237.12000000000003,3.10079878,2.07618544,0.40816537999999997,-0.39384819000000004,-0.482167967,-0.380179488,-0.18800595699999997,0.33241989000000005,0.04199100609999999,-0.454484037,-0.48222339300000006,-0.14346135,,6.787878787878789,0,L26_NIRS-2019-09-06_006_trial01.txt,272.0
175,238.40000000000003,3.0891834100000004,2.05774339,0.388257709,-0.3768750940000001,-0.47059662399999996,-0.357220977,-0.200207761,0.34170628999999997,0.0369600249,-0.4599597580000001,-0.48145028399999995,-0.153073054,,6.787878787878789,0,L26_NIRS-2019-09-06_006_trial01.txt,272.0
176,239.67999999999998,3.03420677,1.9983899399999998,0.32827080599999997,-0.410520079,-0.47834088,-0.360984567,-0.20110274199999995,0.359321643,0.0407871316,-0.459010477,-0.47690633500000007,-0.160666488,,6.787878787878789,0,L26_NIRS-2019-09-06_006_trial01.txt,272.0
177,240.96000000000004,2.9077062799999998,1.8789650999999998,0.229007997,-0.5003916450000001,-0.5088368759999999,-0.411473791,-0.20068093,0.378755109,0.0487040169,-0.450490739,-0.47135268799999996,-0.16373405400000002,,6.787878787878789,0,L26_NIRS-2019-09-06_006_trial01.txt,272.0
178,242.23999999999995,2.76821974,1.746866,0.12292668430000002,-0.6105012230000001,-0.5528948609999998,-0.48165835900000004,-0.199674978,0.40288768199999997,0.058226269500000004,-0.43166104,-0.4614394570000001,-0.15686392000000002,,6.787878787878789,0,L26_NIRS-2019-09-06_006_trial01.txt,272.0
179,243.51999999999998,2.67489925,1.6537714000000001,0.044297776,-0.6929000390000001,-0.590153521,-0.5231597689999999,-0.20009268900000002,0.424683421,0.06592970109999999,-0.40356159700000005,-0.44940493400000003,-0.138786064,,6.787878787878789,0,L26_NIRS-2019-09-06_006_trial01.txt,272.0
180,244.80000000000004,2.69454268,1.6328672300000004,0.018657442899999998,-0.7181828750000001,-0.601157052,-0.5123141440000001,-0.19517583600000002,0.4464763789999999,0.07584822799999999,-0.369553348,-0.437565923,-0.11581600300000001,,6.787878787878789,0,L26_NIRS-2019-09-06_006_trial01.txt,272.0
181,246.07999999999998,2.79376963,1.6750477500000003,0.0428562942,-0.6883720489999999,-0.5791280289999999,-0.465224191,-0.182111418,0.471239293,0.091001659,-0.33597179,-0.424956798,-0.0961487106,,6.787878787878789,0,L26_NIRS-2019-09-06_006_trial01.txt,272.0
182,247.35999999999999,2.9267210500000003,1.7535720099999998,0.1062316225,-0.6283122299999999,-0.5386676589999999,-0.420828516,-0.166717504,0.48709941400000006,0.108476935,-0.31244581499999996,-0.41642636799999994,-0.0869759467,,6.787878787878789,0,L26_NIRS-2019-09-06_006_trial01.txt,272.0
183,248.64000000000001,3.01866963,1.8177589599999997,0.16251841699999997,-0.588981916,-0.516600387,-0.416978102,-0.166401037,0.48234694000000006,0.11917862399999998,-0.30494080199999996,-0.4183531089999999,-0.09179347900000001,,6.787878787878789,0,L26_NIRS-2019-09-06_006_trial01.txt,272.0
184,249.92000000000002,3.04127964,1.83521602,0.18314053800000002,-0.5827111540000001,-0.519419621,-0.444639324,-0.18110791099999998,0.460417427,0.11698556,-0.307543142,-0.42737956600000004,-0.1050855299,,6.787878787878789,0,L26_NIRS-2019-09-06_006_trial01.txt,272.0
185,251.2,3.04016881,1.8315189099999998,0.17784121800000002,-0.587853035,-0.5317391579999999,-0.459947105,-0.19913604000000001,0.441375779,0.105922731,-0.312428408,-0.433128663,-0.115736804,,6.787878787878789,0,L26_NIRS-2019-09-06_006_trial01.txt,272.0
186,252.48000000000002,3.0487756599999996,1.8405992299999998,0.176809833,-0.574267737,-0.536374189,-0.44274410399999997,-0.21655563100000003,0.42866360299999995,0.094403063,-0.31342211,-0.4350323670000001,-0.12006590499999999,,6.787878787878789,0,L26_NIRS-2019-09-06_006_trial01.txt,272.0
187,253.75999999999993,3.0700261200000005,1.8647440300000002,0.185020689,-0.5405881229999999,-0.5291979579999999,-0.41043335900000005,-0.23240703000000001,0.42261584599999996,0.0881961654,-0.30907475599999995,-0.43422208700000003,-0.115176902,,6.787878787878789,0,L26_NIRS-2019-09-06_006_trial01.txt,272.0
188,255.03999999999996,3.0639156200000004,1.87394738,0.19757373699999997,-0.5124183729999999,-0.519976098,-0.4010897969999999,-0.244869338,0.419508639,0.0872699673,-0.30607672399999997,-0.431880458,-0.11794182600000003,,6.787878787878789,0,L26_NIRS-2019-09-06_006_trial01.txt,272.0
189,256.32000000000005,3.0285464,1.8665173000000004,0.212877699,-0.49179296599999994,-0.50828297,-0.41444639399999994,-0.259119644,0.41703142500000007,0.08810668660000001,-0.306733099,-0.4297437270000001,-0.12750376500000002,,6.787878787878789,0,L26_NIRS-2019-09-06_006_trial01.txt,272.0
190,257.59999999999997,2.97547227,1.8421130700000004,0.210548167,-0.4905162150000001,-0.503527129,-0.4337989499999999,-0.272416211,0.41578567400000005,0.0848514573,-0.31368163400000004,-0.428863125,-0.137572465,,6.787878787878789,0,L26_NIRS-2019-09-06_006_trial01.txt,272.0
191,258.88,2.9088252999999997,1.81359513,0.18383973499999998,-0.508097209,-0.505069988,-0.44261147800000006,-0.28154447799999993,0.410171258,0.074677739,-0.326999307,-0.42652245899999996,-0.145565143,,6.787878787878789,0,L26_NIRS-2019-09-06_006_trial01.txt,272.0
192,260.15999999999997,2.8374152100000005,1.7889895600000003,0.14353441499999997,-0.53448446,-0.5135864660000001,-0.44086647900000003,-0.28184475400000003,0.40470168100000004,0.06148700420000001,-0.346247766,-0.423064283,-0.15030782,,6.787878787878789,0,L26_NIRS-2019-09-06_006_trial01.txt,272.0
193,261.44,2.7581723999999994,1.7862609200000001,0.11152410370000002,-0.5525801300000002,-0.522856022,-0.447644285,-0.284409125,0.399232115,0.0491301889,-0.366313231,-0.417254988,-0.153401702,,6.787878787878789,0,L26_NIRS-2019-09-06_006_trial01.txt,272.0
194,262.72,2.6960545199999997,1.8046641,0.100578286,-0.557003643,-0.528591915,-0.465158366,-0.287706367,0.39117244799999995,0.03991954240000001,-0.38342549200000003,-0.413564081,-0.1547792,,6.787878787878789,0,L26_NIRS-2019-09-06_006_trial01.txt,272.0
195,264.0,2.6647726799999996,1.82644026,0.12719284,-0.527962853,-0.520789126,-0.483820975,-0.290722962,0.380737746,0.03320800489999999,-0.3957784729999999,-0.41360680800000005,-0.161672341,,6.787878787878789,0,L26_NIRS-2019-09-06_006_trial01.txt,272.0
196,265.28000000000003,2.66145632,1.8410197099999999,0.184133899,-0.45201226099999997,-0.48560901999999995,-0.477691249,-0.296276565,0.37615681199999995,0.0272405691,-0.40006647500000003,-0.41446123,-0.166864461,,6.787878787878789,0,L26_NIRS-2019-09-06_006_trial01.txt,272.0
197,266.55999999999995,2.70647383,1.86151023,0.255767586,-0.34572309999999995,-0.42660457800000007,-0.43921018000000006,-0.297195118,0.379557189,0.021497578,-0.397175887,-0.415771774,-0.16828214000000002,,6.787878787878789,0,L26_NIRS-2019-09-06_006_trial01.txt,272.0
198,267.84000000000003,2.75351945,1.8628863700000005,0.30183955,-0.266166278,-0.37455729600000004,-0.39397413800000003,-0.297518967,0.38454621,0.0159156339,-0.392426538,-0.419706453,-0.170169448,,6.787878787878789,0,L26_NIRS-2019-09-06_006_trial01.txt,272.0
199,269.12,2.77668104,1.8229529599999998,0.29444359000000003,-0.24856551300000002,-0.35231906300000004,-0.36301755,-0.294294116,0.388899058,0.0130682187,-0.389567125,-0.42402099800000004,-0.17449198700000002,,6.787878787878789,0,L26_NIRS-2019-09-06_006_trial01.txt,272.0
200,270.40000000000003,2.75232643,1.7505660199999997,0.22784816099999997,-0.312039042,-0.37855155,-0.364422409,-0.298539696,0.389251047,0.0158388234,-0.391548191,-0.42406412399999993,-0.178988915,,6.787878787878789,0,L26_NIRS-2019-09-06_006_trial01.txt,272.0
201,271.68,2.65934683,1.65845639,0.1199905869,-0.447701565,-0.45078551199999994,-0.406620736,-0.294984521,0.386346364,0.020138405999999998,-0.39581435800000003,-0.421450248,-0.184729496,,6.787878787878789,0,L26_NIRS-2019-09-06_006_trial01.txt,272.0
202,272.96,2.550552,1.5714987900000001,-0.01982646674,-0.574104612,-0.5156125699999999,-0.489122774,-0.30542835300000004,0.398556415,0.0249219593,-0.37889715600000007,-0.41481195299999996,-0.16642668099999997,,6.787878787878789,0,L26_NIRS-2019-09-06_006_trial01.txt,272.0
203,274.24,2.5200010699999997,1.50647597,-0.1458422741,-0.669032247,-0.5601088909999999,-0.569328596,-0.29069505199999995,0.42092587000000004,0.032293716099999994,-0.35920107800000006,-0.40680619000000007,-0.134584413,,6.787878787878789,0,L26_NIRS-2019-09-06_006_trial01.txt,272.0
204,275.52,2.6005661,1.49835685,-0.22541771699999996,-0.715552618,-0.5704516370000001,-0.6225794839999998,-0.24313647400000002,0.443986692,0.037293828599999995,-0.33798325700000004,-0.3986812430000001,-0.096442879,,6.787878787878789,0,L26_NIRS-2019-09-06_006_trial01.txt,272.0
205,276.8,2.79750549,1.54080005,-0.252251428,-0.727369646,-0.545182539,-0.6246128929999999,-0.170820478,0.4556424269999999,0.0352969423,-0.319743079,-0.39130247900000004,-0.0627169478,,6.787878787878789,0,L26_NIRS-2019-09-06_006_trial01.txt,272.0
206,278.08000000000004,3.08674208,1.61732485,-0.23225125299999996,-0.7048887520000001,-0.49245871,-0.568659223,-0.0993157204,0.45395816299999997,0.029368342800000002,-0.30268512699999994,-0.38312516900000004,-0.040628554399999996,,6.787878787878789,0,L26_NIRS-2019-09-06_006_trial01.txt,272.0
207,279.36,3.3848779799999997,1.69411611,-0.184610655,-0.6836550370000001,-0.444184716,-0.48513310499999995,-0.0539333006,0.434231651,0.0234997751,-0.29468875000000005,-0.3744395240000001,-0.0363681231,,6.787878787878789,0,L26_NIRS-2019-09-06_006_trial01.txt,272.0
208,280.64,3.5661306700000006,1.74645604,-0.124938947,-0.683555423,-0.42813003999999993,-0.43521366399999994,-0.0408538613,0.403229581,0.0161496586,-0.299590625,-0.37064095,-0.0527908119,,6.787878787878789,0,L26_NIRS-2019-09-06_006_trial01.txt,272.0
209,281.92,3.6358460800000003,1.77792347,-0.0950333762,-0.6833943109999999,-0.428062861,-0.451809436,-0.076555676,0.37657288499999997,0.00569279242,-0.30255697800000003,-0.37154420899999996,-0.06344437210000001,,6.787878787878789,0,L26_NIRS-2019-09-06_006_trial01.txt,272.0
210,283.2,3.705547180000001,1.7913970099999996,-0.0653531944,-0.6945973320000001,-0.459720223,-0.491098053,-0.0935969637,0.354340695,0.0008117190319999999,-0.322607765,-0.381852839,-0.07697643559999999,,6.787878787878789,0,L26_NIRS-2019-09-06_006_trial01.txt,272.0
211,284.48,3.6828470199999996,1.8031650899999998,-0.051403627800000004,-0.6971469530000001,-0.495393435,-0.536853168,-0.11832672400000002,0.34200375,-0.00712617631,-0.341173544,-0.39243288099999996,-0.0840944906,,6.787878787878789,0,L26_NIRS-2019-09-06_006_trial01.txt,272.0
212,285.76000000000005,3.6121227399999993,1.8364627500000004,-0.044718921800000005,-0.668336565,-0.48122659199999995,-0.5522270870000001,-0.145802663,0.34424910999999997,-0.018660241299999998,-0.350269555,-0.396760221,-0.0831597549,,6.787878787878789,0,L26_NIRS-2019-09-06_006_trial01.txt,272.0
213,287.03999999999996,3.61178622,1.91384992,-0.01955230271,-0.602742947,-0.400350195,-0.502535931,-0.156001411,0.363357447,-0.024718884899999998,-0.34617170500000005,-0.398572859,-0.0817470599,,6.787878787878789,0,L26_NIRS-2019-09-06_006_trial01.txt,272.0
214,288.064,3.654782883333334,1.9812095333333335,0.005934075675,-0.5464050433333333,-0.30702030666666663,-0.4478378716666666,-0.1504795733333333,0.38971359,-0.021122128833333337,-0.3341892066666667,-0.39983998000000004,-0.09355483399999999,,6.787878787878789,0,L26_NIRS-2019-09-06_006_trial01.txt,272.0
