,time,S3_D4_HbO,S3_D3_HbO,S2_D3_HbO,S2_D2_HbO,S1_D2_HbO,S1_D1_HbO,S3_D4_HbR,S3_D3_HbR,S2_D3_HbR,S2_D2_HbR,S1_D2_HbR,S1_D1_HbR,Var14,score,labelnum,filename,total_time
0,24.256,3.0714789799999997,1.16136646,-0.0933167736,0.47942721499999996,0.125162502,0.5793877279999999,8.310229549999999,0.42923324400000007,0.169123187,0.5234831090000001,0.299278715,-0.06731686399999999,,136.87878787878788,0,L26_NIRS-2019-09-07_005_trial01.txt,151.0
1,25.536,2.97577948,1.1093904399999999,-0.20984447499999997,0.39078725200000003,0.0853760187,0.592271165,8.33848378,0.493940408,0.216120497,0.542621436,0.30974673399999997,-0.0481370729,,136.87878787878788,0,L26_NIRS-2019-09-07_005_trial01.txt,151.0
2,26.816000000000003,2.9989654199999998,1.13256916,-0.277235094,0.355856277,0.1204255921,0.6847242490000001,8.334024639999999,0.5636514910000001,0.26790294300000006,0.568426821,0.328494544,-0.02919419550000001,,136.87878787878788,0,L26_NIRS-2019-09-07_005_trial01.txt,151.0
3,28.096000000000004,3.09942252,1.2102087800000003,-0.257171741,0.39668041499999995,0.187160481,0.7691904239999999,8.280573689999999,0.631272109,0.32499574899999994,0.6002578630000001,0.344646773,-0.018598295699999996,,136.87878787878788,0,L26_NIRS-2019-09-07_005_trial01.txt,151.0
4,29.375999999999998,3.15171055,1.26991357,-0.20708852800000002,0.4600831910000001,0.21758427499999997,0.784325578,8.16815072,0.692812194,0.370636405,0.631371214,0.356352827,-0.004148574053999999,,136.87878787878788,0,L26_NIRS-2019-09-07_005_trial01.txt,151.0
5,30.655999999999995,3.1404858499999992,1.2646512800000003,-0.19439997199999998,0.504796277,0.181008482,0.7092671769999999,8.051640160000002,0.742367678,0.395516175,0.659251257,0.363383435,0.01663177939,,136.87878787878788,0,L26_NIRS-2019-09-07_005_trial01.txt,151.0
6,31.935999999999996,3.0678578099999996,1.2158182399999997,-0.227565702,0.515142829,0.11850342039999999,0.623253126,7.9533995399999995,0.784782291,0.401096346,0.682168031,0.372706136,0.0487731708,,136.87878787878788,0,L26_NIRS-2019-09-07_005_trial01.txt,151.0
7,33.215999999999994,2.9879129200000003,1.17460457,-0.269707426,0.5109991920000001,0.08972449340000001,0.6048185719999999,7.89599276,0.820956462,0.402654758,0.697809913,0.384582004,0.0931082097,,136.87878787878788,0,L26_NIRS-2019-09-07_005_trial01.txt,151.0
8,34.495999999999995,2.94869935,1.16997985,-0.291974131,0.5228026440000001,0.1064941073,0.673606358,7.872821429999999,0.8489201990000002,0.410458969,0.7092655389999999,0.39435581200000003,0.13694940700000002,,136.87878787878788,0,L26_NIRS-2019-09-07_005_trial01.txt,151.0
9,35.775999999999996,2.95670331,1.19201508,-0.282807959,0.5608640570000001,0.15332180599999998,0.7744705720000001,7.885748090000002,0.872456618,0.43023653799999995,0.7179712,0.397907336,0.157312281,,136.87878787878788,0,L26_NIRS-2019-09-07_005_trial01.txt,151.0
10,37.056,2.9827524199999997,1.2344381400000002,-0.22011936599999998,0.638493013,0.21182792300000003,0.891429643,7.9022945899999995,0.900419,0.463232571,0.72838559,0.39244696199999995,0.160241527,,136.87878787878788,0,L26_NIRS-2019-09-07_005_trial01.txt,151.0
11,38.336,3.0008777799999997,1.27396983,-0.11439114290000003,0.738232659,0.273633083,1.0448139189999999,7.900826599999999,0.929528605,0.49890234,0.7346638710000001,0.378513408,0.164827271,,136.87878787878788,0,L26_NIRS-2019-09-07_005_trial01.txt,151.0
12,39.616,3.0019137700000003,1.30354435,-0.02716261631,0.8292312860000001,0.316078472,1.13676121,7.8939886900000005,0.9646421340000002,0.5168814690000001,0.733693577,0.35459944000000004,0.166036234,,136.87878787878788,0,L26_NIRS-2019-09-07_005_trial01.txt,151.0
13,40.896,2.95060959,1.32923373,0.0448804819,0.893682836,0.35618211400000005,1.18427079,7.879252169999999,0.988357036,0.516529682,0.7186038380000002,0.328224317,0.16530728,,136.87878787878788,0,L26_NIRS-2019-09-07_005_trial01.txt,151.0
14,42.176,2.9035801699999997,1.3454582400000004,0.0785378128,0.9108095150000001,0.38898555199999996,1.17179281,7.845179369999999,0.990763884,0.494025814,0.688330794,0.297625522,0.153165673,,136.87878787878788,0,L26_NIRS-2019-09-07_005_trial01.txt,151.0
15,43.456,2.9022714800000005,1.34417538,0.0864283651,0.8994917530000001,0.414104066,1.1512227000000002,7.80202657,0.9844689219999999,0.46053963099999995,0.6621194650000001,0.27013056100000005,0.13217473700000001,,136.87878787878788,0,L26_NIRS-2019-09-07_005_trial01.txt,151.0
16,44.73599999999999,2.9325449200000007,1.30889076,0.06171102790000001,0.8524041990000001,0.41497589799999995,1.11835598,7.754480000000001,0.9747900489999999,0.42878814600000004,0.6504141390000001,0.250299285,0.10033846399999999,,136.87878787878788,0,L26_NIRS-2019-09-07_005_trial01.txt,151.0
17,46.016000000000005,3.0007473499999997,1.2657282399999998,0.03277665169999999,0.8082344210000001,0.41264993400000005,1.12095483,7.70530563,0.9665691439999999,0.40622047099999997,0.6562755450000001,0.24025816300000002,0.070926327,,136.87878787878788,0,L26_NIRS-2019-09-07_005_trial01.txt,151.0
18,47.296,3.08508087,1.2293815000000001,0.0215172025,0.790178701,0.421516973,1.1872787599999999,7.66132197,0.966290675,0.39347190200000004,0.670928721,0.23423838900000002,0.054037653500000005,,136.87878787878788,0,L26_NIRS-2019-09-07_005_trial01.txt,151.0
19,48.576,3.1618959500000003,1.2333798599999999,0.0578978025,0.821493666,0.450470206,1.27095027,7.618767410000001,0.977745197,0.39308291799999995,0.6820875899999999,0.221859545,0.0395320849,,136.87878787878788,0,L26_NIRS-2019-09-07_005_trial01.txt,151.0
20,49.855999999999995,3.1693449199999995,1.2742361399999997,0.13162561290000002,0.884105963,0.48809124800000003,1.3318519800000002,7.57326203,0.9753773700000001,0.39724590400000004,0.670697842,0.197970395,0.024605776200000002,,136.87878787878788,0,L26_NIRS-2019-09-07_005_trial01.txt,151.0
21,51.13600000000001,3.1118871300000004,1.32240007,0.19473067100000002,0.9434883199999999,0.5144195779999999,1.3124316399999998,7.5191173000000004,0.9492475129999999,0.388296772,0.6284596019999998,0.15982270199999998,0.0013391607200000002,,136.87878787878788,0,L26_NIRS-2019-09-07_005_trial01.txt,151.0
22,52.416,3.00235379,1.3376202999999998,0.20473872499999998,0.970969,0.513223933,1.2317561500000003,7.477177839999999,0.9096486519999999,0.36282334,0.572438174,0.11834133599999999,-0.0142944925,,136.87878787878788,0,L26_NIRS-2019-09-07_005_trial01.txt,151.0
23,53.696000000000005,2.85713111,1.3227269099999999,0.15001698000000002,0.960635213,0.491354277,1.13469941,7.4426115,0.862087406,0.326041807,0.519712006,0.08400739649999998,-0.009579895439999998,,136.87878787878788,0,L26_NIRS-2019-09-07_005_trial01.txt,151.0
24,54.976,2.71727959,1.2941889400000002,0.04537984188000001,0.924449618,0.46022855200000007,1.0275934879999997,7.415036549999999,0.815670304,0.28476572099999997,0.48258059400000003,0.06147088879999999,0.007203809089,,136.87878787878788,0,L26_NIRS-2019-09-07_005_trial01.txt,151.0
25,56.25600000000001,2.64049398,1.2756571500000002,-0.0459515741,0.891519429,0.444371959,0.9500830499999999,7.40478696,0.7904330629999999,0.25355078099999995,0.470390758,0.0488740399,0.0200322114,,136.87878787878788,0,L26_NIRS-2019-09-07_005_trial01.txt,151.0
26,57.536,2.6640088,1.28381481,-0.05666753680000001,0.887855201,0.4610032700000001,0.9513854159999999,7.399377869999998,0.792227674,0.24388720299999997,0.488651724,0.0412126696,0.0198083461,,136.87878787878788,0,L26_NIRS-2019-09-07_005_trial01.txt,151.0
27,58.81600000000001,2.75902605,1.3207288400000001,0.02402432855,0.9206050299999999,0.5005507180000001,1.006514633,7.379351389999999,0.8120302839999999,0.258329168,0.5253365590000001,0.0343146529,-0.0014563748560000003,,136.87878787878788,0,L26_NIRS-2019-09-07_005_trial01.txt,151.0
28,60.096000000000004,2.8507219499999996,1.36662699,0.1427434779,0.9411229559999998,0.541489131,1.09384021,7.359168170000001,0.834043823,0.271164707,0.5557171999999999,0.0242936184,-0.045315145200000004,,136.87878787878788,0,L26_NIRS-2019-09-07_005_trial01.txt,151.0
29,61.37599999999999,2.92269996,1.40448597,0.267880268,0.9303031079999998,0.567966119,1.1921290400000002,7.350669209999998,0.8563450289999999,0.28068896899999995,0.567300891,0.011170826620000001,-0.09752919200000001,,136.87878787878788,0,L26_NIRS-2019-09-07_005_trial01.txt,151.0
30,62.65599999999999,2.9741748199999996,1.4502702399999998,0.37303807799999994,0.9372414920000001,0.6022429240000001,1.2935780799999999,7.340074899999999,0.870412935,0.284350702,0.561339608,-0.002245058037,-0.132278096,,136.87878787878788,0,L26_NIRS-2019-09-07_005_trial01.txt,151.0
31,63.93599999999999,2.99425186,1.4899911499999998,0.42222364599999995,0.9620538530000001,0.6234631500000001,1.32714617,7.3281122199999995,0.869956445,0.28144980199999997,0.5439144290000001,-0.012966006710000002,-0.139709115,,136.87878787878788,0,L26_NIRS-2019-09-07_005_trial01.txt,151.0
32,65.216,2.9882993200000003,1.5106059,0.40101789600000004,0.9853555650000001,0.613101739,1.2700949600000002,7.31947387,0.852379189,0.274018204,0.5240710789999999,-0.020427317499999997,-0.12208870099999998,,136.87878787878788,0,L26_NIRS-2019-09-07_005_trial01.txt,151.0
33,66.496,2.9514058,1.4917226300000004,0.31642534699999997,0.9737142030000001,0.558877862,1.11667213,7.307667699999999,0.823182972,0.26452334299999997,0.5104700280000001,-0.026808389,-0.0899024273,,136.87878787878788,0,L26_NIRS-2019-09-07_005_trial01.txt,151.0
34,67.776,2.89659698,1.4460575800000002,0.215340453,0.951512041,0.493737977,0.948465637,7.283642010000001,0.7973199519999999,0.25894240799999996,0.5107751300000001,-0.0276278424,-0.0559867541,,136.87878787878788,0,L26_NIRS-2019-09-07_005_trial01.txt,151.0
35,69.056,2.80084323,1.38800811,0.120922138,0.8732926599999999,0.4307932149999999,0.8310942499999999,7.2587711299999995,0.7809947030000002,0.24943954099999996,0.504905362,-0.022879136399999996,-0.038412294900000005,,136.87878787878788,0,L26_NIRS-2019-09-07_005_trial01.txt,151.0
36,70.336,2.7312211399999997,1.3859767399999998,0.13749576800000002,0.7906880999999999,0.40794144800000004,0.826529975,7.222875190000001,0.791062257,0.25848736099999997,0.48834425900000006,-0.0166313749,-0.0457069838,,136.87878787878788,0,L26_NIRS-2019-09-07_005_trial01.txt,151.0
37,71.616,2.71435198,1.4651102200000001,0.27328768400000003,0.75719475,0.440334955,0.9343575930000002,7.1673132100000005,0.813609941,0.286583646,0.46061726299999994,-0.0137576284,-0.06936997760000001,,136.87878787878788,0,L26_NIRS-2019-09-07_005_trial01.txt,151.0
38,72.89599999999999,2.73359374,1.5790026400000001,0.453471283,0.773103248,0.512176767,1.10428273,7.0977802,0.8329003399999999,0.3188832220000001,0.42504420400000004,-0.0158042772,-0.10177114770000002,,136.87878787878788,0,L26_NIRS-2019-09-07_005_trial01.txt,151.0
39,74.17599999999999,2.7667759300000005,1.67031058,0.581435637,0.800209229,0.593499466,1.28661431,7.02716899,0.8365249719999998,0.33501193500000004,0.3901941970000001,-0.020781495599999998,-0.132163774,,136.87878787878788,0,L26_NIRS-2019-09-07_005_trial01.txt,151.0
40,75.45599999999999,2.79733704,1.71438317,0.635337296,0.807500567,0.6562678710000001,1.4244277100000002,6.9716767200000005,0.8299120490000002,0.326226818,0.36331042,-0.025567193,-0.154070111,,136.87878787878788,0,L26_NIRS-2019-09-07_005_trial01.txt,151.0
41,76.736,2.79937946,1.6952533500000002,0.618952264,0.7743654390000001,0.675023542,1.4837929200000002,6.93675517,0.825182444,0.29116504800000004,0.34889343300000003,-0.023756498299999998,-0.157796205,,136.87878787878788,0,L26_NIRS-2019-09-07_005_trial01.txt,151.0
42,78.01599999999999,2.7373668200000005,1.61304652,0.5363711980000001,0.6642973590000001,0.6181651930000001,1.4194098400000001,6.927581300000002,0.83516343,0.238848024,0.333876082,-0.013502970469999997,-0.14041699300000002,,136.87878787878788,0,L26_NIRS-2019-09-07_005_trial01.txt,151.0
43,79.296,2.6492497999999998,1.5286021199999997,0.44997453600000004,0.522090141,0.514659724,1.29348913,6.93393473,0.86666094,0.195358003,0.320679123,0.005226218776,-0.1019906207,,136.87878787878788,0,L26_NIRS-2019-09-07_005_trial01.txt,151.0
44,80.576,2.5531836500000002,1.48073739,0.38938660599999997,0.382946328,0.382028559,1.1382318599999999,6.94873051,0.9046579520000002,0.17733411500000001,0.30475304299999995,0.0219109984,-0.059854680699999996,,136.87878787878788,0,L26_NIRS-2019-09-07_005_trial01.txt,151.0
45,81.856,2.46666039,1.4657399199999999,0.357508139,0.30659695400000003,0.28103164300000005,1.0117519910000001,6.95537558,0.928661731,0.179214427,0.282586465,0.0258689132,-0.030206289600000002,,136.87878787878788,0,L26_NIRS-2019-09-07_005_trial01.txt,151.0
46,83.136,2.4013818000000002,1.4778172900000002,0.35021381999999995,0.31440568300000005,0.269336493,0.993990649,6.9494896499999985,0.9233992069999999,0.18966994499999998,0.25541817999999994,0.013624807370000002,-0.0176691681,,136.87878787878788,0,L26_NIRS-2019-09-07_005_trial01.txt,151.0
47,84.416,2.4136630299999995,1.53634955,0.413601715,0.411325862,0.36517590899999997,1.1083334699999998,6.937356889999999,0.896108395,0.205754363,0.234275917,-0.010589991793,-0.029743656700000003,,136.87878787878788,0,L26_NIRS-2019-09-07_005_trial01.txt,151.0
48,85.696,2.4940897300000002,1.62746159,0.5307268279999999,0.5392851409999999,0.508436915,1.2760858000000002,6.925630459999999,0.867048259,0.21687109300000001,0.22788637399999997,-0.037058165500000004,-0.0610960355,,136.87878787878788,0,L26_NIRS-2019-09-07_005_trial01.txt,151.0
49,86.976,2.6046788899999997,1.7158551899999999,0.635976766,0.6469048070000001,0.624071357,1.40551711,6.92226883,0.856011535,0.217275531,0.23981101200000002,-0.052358087,-0.09147927310000001,,136.87878787878788,0,L26_NIRS-2019-09-07_005_trial01.txt,151.0
50,88.256,2.70318141,1.7637606099999998,0.665797841,0.6835413390000001,0.664865275,1.4533266,6.933543599999998,0.864727976,0.21196169,0.268164522,-0.0491623681,-0.108742632,,136.87878787878788,0,L26_NIRS-2019-09-07_005_trial01.txt,151.0
51,89.53599999999999,2.72612321,1.7359481600000002,0.580397982,0.621849383,0.61493971,1.39494407,6.946395579999999,0.873217615,0.20134234500000003,0.298332991,-0.033738274400000004,-0.11729904400000002,,136.87878787878788,0,L26_NIRS-2019-09-07_005_trial01.txt,151.0
52,90.81599999999999,2.6616162900000004,1.6448444899999999,0.42068354599999996,0.5147554950000001,0.526502274,1.29760989,6.93591704,0.871312173,0.181326937,0.317618827,-0.0170072963,-0.12004080799999998,,136.87878787878788,0,L26_NIRS-2019-09-07_005_trial01.txt,151.0
53,92.09599999999999,2.5649849,1.5500615100000004,0.28850493,0.43155335499999997,0.468508614,1.25514757,6.901003349999999,0.8578773199999998,0.16426115800000002,0.319946153,-0.0108883852,-0.12020224900000001,,136.87878787878788,0,L26_NIRS-2019-09-07_005_trial01.txt,151.0
54,93.376,2.4965318300000003,1.4941918600000004,0.241340693,0.39301898699999993,0.45484506400000013,1.27377755,6.85238179,0.8393196789999999,0.16618676500000001,0.311751553,-0.0206641636,-0.128160106,,136.87878787878788,0,L26_NIRS-2019-09-07_005_trial01.txt,151.0
55,94.65599999999999,2.47984415,1.5008054999999998,0.28040673800000004,0.401805607,0.46978972599999996,1.32534717,6.799676839999999,0.8320568770000001,0.18961921899999998,0.303429564,-0.0398313236,-0.14421930800000002,,136.87878787878788,0,L26_NIRS-2019-09-07_005_trial01.txt,151.0
56,95.93599999999999,2.4955504000000004,1.5431371600000001,0.350542207,0.43723117600000005,0.48512203200000004,1.3758827400000002,6.756294560000001,0.843128071,0.22657993699999998,0.29964353200000005,-0.056090989,-0.15416533300000002,,136.87878787878788,0,L26_NIRS-2019-09-07_005_trial01.txt,151.0
57,97.216,2.50804427,1.56699116,0.37626095000000004,0.46037004700000006,0.4836937130000001,1.4030408599999997,6.735101090000001,0.865511998,0.264736203,0.299571629,-0.0604501489,-0.145775618,,136.87878787878788,0,L26_NIRS-2019-09-07_005_trial01.txt,151.0
58,98.49600000000001,2.4844040299999994,1.52642761,0.31692641000000005,0.443020218,0.4684725469999999,1.3993608499999997,6.730966419999999,0.8833232910000002,0.291097078,0.297783838,-0.05242332759999999,-0.12676304,,136.87878787878788,0,L26_NIRS-2019-09-07_005_trial01.txt,151.0
59,99.776,2.44646351,1.46311593,0.22761057900000004,0.424374611,0.46640291599999995,1.40679251,6.74585546,0.9049718449999998,0.302122983,0.29869171699999997,-0.0357294055,-0.10501651540000001,,136.87878787878788,0,L26_NIRS-2019-09-07_005_trial01.txt,151.0
60,101.056,2.4407529400000003,1.42087572,0.193580225,0.44243738099999996,0.489210132,1.4400932899999999,6.761205390000001,0.927950536,0.307123247,0.305363942,-0.0184652087,-0.08892310179999999,,136.87878787878788,0,L26_NIRS-2019-09-07_005_trial01.txt,151.0
61,102.336,2.45301862,1.4168938100000001,0.23365505399999997,0.48611411899999996,0.508564488,1.4509740599999998,6.75434716,0.948613512,0.312812226,0.31399277800000003,-0.00888952523,-0.08497572340000001,,136.87878787878788,0,L26_NIRS-2019-09-07_005_trial01.txt,151.0
62,103.61600000000001,2.4639802299999998,1.45177788,0.336729948,0.5450759730000001,0.5138983739999999,1.4690111199999998,6.712823179999999,0.9638935679999999,0.32201986800000004,0.31749443400000005,-0.0075592388,-0.08690828380000001,,136.87878787878788,0,L26_NIRS-2019-09-07_005_trial01.txt,151.0
63,104.89599999999999,2.44322784,1.51244873,0.46451684699999995,0.610211274,0.511993678,1.5066501899999998,6.638715209999999,0.9698256869999999,0.32938351499999996,0.312607163,-0.01228824607,-0.0842966622,,136.87878787878788,0,L26_NIRS-2019-09-07_005_trial01.txt,151.0
64,106.176,2.37020879,1.5695682000000002,0.5651083660000001,0.6685220519999999,0.5163801280000001,1.5840505400000002,6.5323815100000004,0.95483761,0.32588902299999994,0.29467466499999995,-0.0183044786,-0.0601388833,,136.87878787878788,0,L26_NIRS-2019-09-07_005_trial01.txt,151.0
65,107.45599999999999,2.28498385,1.6455420699999999,0.658224739,0.758828823,0.560544543,1.6794119999999997,6.4079598,0.9202141650000002,0.314465787,0.26095056000000005,-0.0291025747,-0.031781546300000005,,136.87878787878788,0,L26_NIRS-2019-09-07_005_trial01.txt,151.0
66,108.73599999999999,2.23750899,1.7532259700000001,0.75911341,0.886515549,0.6372859639999999,1.7594346699999996,6.2990162000000005,0.8769597000000001,0.299523241,0.220436329,-0.0459856461,-0.009648413,,136.87878787878788,0,L26_NIRS-2019-09-07_005_trial01.txt,151.0
67,110.016,2.2396199900000004,1.8690029899999998,0.849302252,1.013091107,0.715136025,1.78352813,6.210846129999999,0.826135311,0.279772861,0.179643429,-0.0679720084,0.0007814682430000001,,136.87878787878788,0,L26_NIRS-2019-09-07_005_trial01.txt,151.0
68,111.296,2.2529378,1.9516507400000003,0.9030539329999998,1.0859304799999998,0.76490154,1.7364183199999998,6.142149280000001,0.777144006,0.25446358399999996,0.14223469,-0.0916771639,0.00027837161600000005,,136.87878787878788,0,L26_NIRS-2019-09-07_005_trial01.txt,151.0
69,112.576,2.24061114,1.96254158,0.894298816,1.07025574,0.7665236369999999,1.64151716,6.1020740799999995,0.7416795009999999,0.225752652,0.11084476599999997,-0.11423908700000003,-0.00613134291,,136.87878787878788,0,L26_NIRS-2019-09-07_005_trial01.txt,151.0
70,113.856,2.17495875,1.8973968199999998,0.8188334899999999,0.9696203669999999,0.717354233,1.5233711900000002,6.086447059999999,0.729977847,0.19691062,0.09540520730000002,-0.12911090399999997,-0.00860904693,,136.87878787878788,0,L26_NIRS-2019-09-07_005_trial01.txt,151.0
71,115.136,2.06369538,1.80232985,0.7117357510000001,0.838606982,0.643886482,1.4123115300000002,6.0843277,0.735165178,0.171572157,0.0932326826,-0.134053275,-0.00392876606,,136.87878787878788,0,L26_NIRS-2019-09-07_005_trial01.txt,151.0
72,116.41599999999998,1.9517607399999999,1.7412108500000003,0.6364031929999999,0.744857855,0.579274001,1.31081139,6.089049350000001,0.7499570390000001,0.15673686600000003,0.09777024040000001,-0.13297522600000003,-0.00251091476,,136.87878787878788,0,L26_NIRS-2019-09-07_005_trial01.txt,151.0
73,117.696,1.8710960999999997,1.70995424,0.5884237430000001,0.678749031,0.5220450080000001,1.23185859,6.0974565,0.770512541,0.152938297,0.112821405,-0.124645013,-0.0126457193,,136.87878787878788,0,L26_NIRS-2019-09-07_005_trial01.txt,151.0
74,118.976,1.85113782,1.7040530600000001,0.573198227,0.6394224310000001,0.49013714799999997,1.22775115,6.1083929,0.802279642,0.16056990799999998,0.14184185300000002,-0.10183825269999999,-0.028939231599999997,,136.87878787878788,0,L26_NIRS-2019-09-07_005_trial01.txt,151.0
75,120.256,1.89001059,1.7143277400000003,0.594916128,0.6290128210000001,0.5006352620000001,1.3017544399999998,6.12633441,0.8397235389999999,0.181164445,0.17075629500000003,-0.07227875959999999,-0.046572756199999996,,136.87878787878788,0,L26_NIRS-2019-09-07_005_trial01.txt,151.0
76,121.53600000000002,1.9377307600000002,1.7215231100000001,0.6357938240000001,0.635962273,0.534133862,1.4050126500000002,6.1425769599999995,0.872992172,0.206674878,0.191675675,-0.0468693254,-0.054898767700000003,,136.87878787878788,0,L26_NIRS-2019-09-07_005_trial01.txt,151.0
77,122.81599999999999,1.93531239,1.70858643,0.663471897,0.646594321,0.5494271580000001,1.4571249299999998,6.1460893599999995,0.8931194149999999,0.22793661600000004,0.198854833,-0.0321677528,-0.0472612943,,136.87878787878788,0,L26_NIRS-2019-09-07_005_trial01.txt,151.0
78,124.096,1.8724524800000002,1.69622935,0.6733439520000001,0.6683924219999999,0.54225398,1.4394275000000003,6.14129478,0.8954390159999999,0.23939056399999997,0.190072127,-0.0295186538,-0.025515484999999997,,136.87878787878788,0,L26_NIRS-2019-09-07_005_trial01.txt,151.0
79,125.376,1.7692598599999996,1.68697171,0.642844813,0.67854707,0.519232957,1.36113085,6.128127470000001,0.877153496,0.234617203,0.16786255700000002,-0.0385700172,0.0019290420620000001,,136.87878787878788,0,L26_NIRS-2019-09-07_005_trial01.txt,151.0
80,126.65599999999999,1.6706434299999997,1.6758585099999999,0.5783257620000001,0.646824443,0.498751794,1.27402856,6.10590266,0.8565459960000001,0.22243373700000002,0.14513607899999997,-0.05045971330000001,0.0287614708,,136.87878787878788,0,L26_NIRS-2019-09-07_005_trial01.txt,151.0
81,127.93599999999996,1.60855149,1.65290967,0.5095264150000001,0.631070942,0.508703654,1.21372336,6.09098897,0.8441273709999999,0.20876038300000005,0.140343044,-0.056173938300000004,0.0498121499,,136.87878787878788,0,L26_NIRS-2019-09-07_005_trial01.txt,151.0
82,129.21599999999998,1.65899511,1.64130699,0.462860078,0.651836341,0.5385550090000001,1.18181036,6.09966912,0.828774649,0.194851463,0.14948355,-0.0612554873,0.06573776769999999,,136.87878787878788,0,L26_NIRS-2019-09-07_005_trial01.txt,151.0
83,130.496,1.8031702299999999,1.64786366,0.466849879,0.6792773650000001,0.558448182,1.15139683,6.12794017,0.8168446000000001,0.19099515500000003,0.16239512199999998,-0.0691947187,0.0724473978,,136.87878787878788,0,L26_NIRS-2019-09-07_005_trial01.txt,151.0
84,131.776,1.95186171,1.65975982,0.487240781,0.6980399879999999,0.5656028720000001,1.1406623699999998,6.16587833,0.8106541770000002,0.185646621,0.180637548,-0.07643757050000001,0.0708017108,,136.87878787878788,0,L26_NIRS-2019-09-07_005_trial01.txt,151.0
85,133.05599999999998,2.06943472,1.66982311,0.507528944,0.713688535,0.5784624929999999,1.19708349,6.20290725,0.8228776459999999,0.18037592499999996,0.213344462,-0.0754264206,0.06043614210000001,,136.87878787878788,0,L26_NIRS-2019-09-07_005_trial01.txt,151.0
86,134.33599999999998,2.14309356,1.66157781,0.49706747799999995,0.705309966,0.5918694729999999,1.3003904299999998,6.226384680000001,0.8545622049999999,0.179494439,0.255069544,-0.0623015448,0.0462967267,,136.87878787878788,0,L26_NIRS-2019-09-07_005_trial01.txt,151.0
87,135.616,2.16658424,1.63694155,0.4484270829999999,0.665702861,0.5939997530000001,1.4045389400000001,6.229052749999999,0.9031057060000002,0.188270326,0.29577450299999997,-0.039462880199999995,0.036925688299999995,,136.87878787878788,0,L26_NIRS-2019-09-07_005_trial01.txt,151.0
88,136.89600000000002,2.1375668599999997,1.6012315700000002,0.3865254769999999,0.6490589370000001,0.583190662,1.4617784600000001,6.216099469999999,0.94675063,0.20661098,0.325907187,-0.01572508481,0.027802631,,136.87878787878788,0,L26_NIRS-2019-09-07_005_trial01.txt,151.0
89,138.176,2.12283476,1.58353332,0.34387817400000004,0.664809847,0.545814828,1.4686097,6.20038775,0.961613472,0.228307428,0.337612095,-0.0010468211059999999,0.0203767688,,136.87878787878788,0,L26_NIRS-2019-09-07_005_trial01.txt,151.0
90,139.456,2.1190446300000003,1.59210631,0.36493280300000003,0.6775276010000001,0.49048073700000006,1.4508036500000003,6.1912206,0.966466703,0.265423531,0.327708718,0.00308845595,0.005811123117,,136.87878787878788,0,L26_NIRS-2019-09-07_005_trial01.txt,151.0
91,140.73600000000002,2.0895658399999997,1.5953484599999999,0.40689840000000005,0.669958229,0.44525315800000004,1.4443519,6.19549312,0.972681108,0.304445503,0.31463920700000003,0.0047071389,-0.01202806818,,136.87878787878788,0,L26_NIRS-2019-09-07_005_trial01.txt,151.0
92,142.01600000000002,2.0533891,1.5837118000000001,0.44111602800000005,0.652581297,0.43094571200000004,1.4502342499999998,6.21444015,0.994858245,0.33995582300000005,0.316607123,0.01417289792,-0.0200770478,,136.87878787878788,0,L26_NIRS-2019-09-07_005_trial01.txt,151.0
93,143.296,1.99894476,1.5284383299999997,0.420939554,0.6032894990000001,0.41301866300000006,1.40280138,6.24098819,1.03228442,0.36837172700000004,0.337004903,0.034867069900000006,-0.007082293037000001,,136.87878787878788,0,L26_NIRS-2019-09-07_005_trial01.txt,151.0
94,144.57600000000002,1.95458526,1.45959673,0.363516839,0.544523913,0.385389891,1.3056348,6.27047917,1.0791804200000001,0.39106356499999995,0.37063770200000007,0.062171790000000005,0.0260235849,,136.87878787878788,0,L26_NIRS-2019-09-07_005_trial01.txt,151.0
95,145.856,1.9161552,1.40240936,0.291256495,0.492734231,0.342714719,1.1794559699999998,6.28369642,1.12053963,0.40877041700000005,0.4040637879999999,0.0878760833,0.06676743650000001,,136.87878787878788,0,L26_NIRS-2019-09-07_005_trial01.txt,151.0
96,147.136,1.9176295299999997,1.3995746900000001,0.270243666,0.4773690009999999,0.311614463,1.0941527800000004,6.28382184,1.1473905500000001,0.428948443,0.422534746,0.1041027366,0.1029266347,,136.87878787878788,0,L26_NIRS-2019-09-07_005_trial01.txt,151.0
97,148.416,1.9402632800000004,1.4407084099999998,0.322076692,0.499084199,0.31181466799999996,1.10156695,6.26319289,1.1585240899999998,0.453588545,0.4255426750000001,0.106496254,0.11651848199999996,,136.87878787878788,0,L26_NIRS-2019-09-07_005_trial01.txt,151.0
98,149.696,1.9816047300000001,1.50009063,0.43180856200000006,0.5639515390000001,0.35600200000000004,1.19841928,6.23391455,1.16248329,0.47951232800000004,0.42019667000000005,0.1016010517,0.108379111,,136.87878787878788,0,L26_NIRS-2019-09-07_005_trial01.txt,151.0
99,150.97599999999997,2.0200660499999996,1.5469942399999999,0.539265695,0.637048973,0.413965362,1.3028281200000003,6.204026809999999,1.16027777,0.49752715399999997,0.40930502499999993,0.09574497039999999,0.0906730942,,136.87878787878788,0,L26_NIRS-2019-09-07_005_trial01.txt,151.0
100,152.256,2.03038809,1.55604147,0.594643822,0.68339559,0.4453068320000001,1.34415534,6.17638484,1.15173766,0.5016987369999999,0.39811263399999997,0.09282268040000001,0.08407987199999999,,136.87878787878788,0,L26_NIRS-2019-09-07_005_trial01.txt,151.0
101,153.536,2.00634652,1.53458401,0.590943537,0.685188859,0.43492906100000006,1.31759058,6.1614618100000005,1.1450357800000002,0.49528311500000005,0.38946804,0.0942598826,0.09746840799999999,,136.87878787878788,0,L26_NIRS-2019-09-07_005_trial01.txt,151.0
102,154.816,1.9299926499999998,1.49150089,0.531078578,0.6245392260000001,0.37707206599999993,1.2259972099999998,6.14906711,1.1379546299999999,0.48067119500000005,0.38376026199999996,0.09951553500000002,0.124977041,,136.87878787878788,0,L26_NIRS-2019-09-07_005_trial01.txt,151.0
103,156.096,1.82390732,1.4421649600000002,0.4485538750000001,0.518748957,0.29669762699999996,1.1026442199999997,6.14352848,1.13148242,0.46569405799999997,0.377109692,0.106995664,0.15971265299999998,,136.87878787878788,0,L26_NIRS-2019-09-07_005_trial01.txt,151.0
104,157.376,1.6989535999999998,1.39029862,0.37555383,0.40135824,0.22940449199999996,0.9869580389999999,6.13733892,1.1263023200000002,0.455014991,0.36704270199999994,0.11339539899999998,0.187342393,,136.87878787878788,0,L26_NIRS-2019-09-07_005_trial01.txt,151.0
105,158.656,1.5867095599999999,1.3535383399999998,0.349923622,0.332977842,0.20630201,0.9254060559999999,6.126420500000001,1.12663922,0.45267722599999993,0.35875105700000004,0.117648069,0.20619193700000005,,136.87878787878788,0,L26_NIRS-2019-09-07_005_trial01.txt,151.0
106,159.936,1.5331940000000002,1.35709598,0.390904766,0.33929258399999995,0.233131418,0.9400510010000002,6.113768479999999,1.13011853,0.463637097,0.353624191,0.11886279799999999,0.21369157499999997,,136.87878787878788,0,L26_NIRS-2019-09-07_005_trial01.txt,151.0
107,161.21599999999998,1.5590960399999998,1.39583447,0.471353832,0.392419398,0.28057678199999997,0.9978980309999999,6.09857374,1.1331187200000001,0.482201454,0.351739696,0.114389622,0.21215919199999997,,136.87878787878788,0,L26_NIRS-2019-09-07_005_trial01.txt,151.0
108,162.496,1.6221595,1.4406234900000001,0.530944649,0.435713097,0.31278687,1.05159772,6.082116470000001,1.13730083,0.49549202999999997,0.34940326099999997,0.10531175100000001,0.208477575,,136.87878787878788,0,L26_NIRS-2019-09-07_005_trial01.txt,151.0
109,163.776,1.6684163,1.4725184300000003,0.53332901,0.42622965399999996,0.30602799700000005,1.0569113700000001,6.0613278500000005,1.1361280900000001,0.4944279939999999,0.344929954,0.09399416740000001,0.20788553799999998,,136.87878787878788,0,L26_NIRS-2019-09-07_005_trial01.txt,151.0
110,165.05599999999998,1.65502744,1.47154822,0.470958145,0.352101378,0.257257056,0.9931574339999999,6.038351650000001,1.12256602,0.47855817500000003,0.3374257520000001,0.08281570549999999,0.213703487,,136.87878787878788,0,L26_NIRS-2019-09-07_005_trial01.txt,151.0
111,166.33599999999998,1.57142779,1.41961056,0.350461691,0.23035691599999994,0.18327695700000002,0.864461412,6.01302014,1.09987466,0.448156071,0.323575743,0.07122914150000001,0.21882544900000003,,136.87878787878788,0,L26_NIRS-2019-09-07_005_trial01.txt,151.0
112,167.616,1.4807698,1.3636613,0.251128535,0.140120572,0.137644894,0.768058617,5.986958270000001,1.07989129,0.420111282,0.314034392,0.0620804933,0.225807168,,136.87878787878788,0,L26_NIRS-2019-09-07_005_trial01.txt,151.0
113,168.89600000000002,1.4799023,1.37900226,0.25836883099999997,0.146844719,0.165624995,0.784912192,5.97141235,1.0685588999999998,0.414920299,0.31586325000000004,0.054887841199999995,0.224736276,,136.87878787878788,0,L26_NIRS-2019-09-07_005_trial01.txt,151.0
114,170.176,1.59216482,1.47670863,0.392054441,0.24502879700000002,0.263036216,0.9176706940000001,5.95757504,1.0669413700000001,0.435146504,0.32832427099999995,0.043871416399999995,0.20335929400000002,,136.87878787878788,0,L26_NIRS-2019-09-07_005_trial01.txt,151.0
115,171.456,1.7542402400000001,1.60892363,0.5789163640000001,0.37411125999999995,0.381916625,1.08796566,5.931574759999998,1.068437,0.463784512,0.34457112900000003,0.027244270999999997,0.166659269,,136.87878787878788,0,L26_NIRS-2019-09-07_005_trial01.txt,151.0
116,172.73600000000002,1.8688717000000001,1.7203621399999995,0.716532792,0.462848359,0.468348042,1.2033886099999997,5.89036679,1.06062427,0.482194691,0.34867329199999997,0.004848191004000001,0.13535829400000002,,136.87878787878788,0,L26_NIRS-2019-09-07_005_trial01.txt,151.0
117,174.01600000000002,1.8643198699999999,1.7505115400000002,0.719367916,0.4606806440000001,0.49127886800000004,1.2264050899999999,5.83068749,1.03003305,0.476071798,0.33105802800000006,-0.025043640699999998,0.116322593,,136.87878787878788,0,L26_NIRS-2019-09-07_005_trial01.txt,151.0
118,175.296,1.7501767400000001,1.6903695600000002,0.5878166010000001,0.367183706,0.4533988,1.16992674,5.763821490000001,0.990773929,0.44598891399999996,0.298848492,-0.055698493599999996,0.10743927099999999,,136.87878787878788,0,L26_NIRS-2019-09-07_005_trial01.txt,151.0
119,176.38400000000001,1.6502618285714288,1.6307067999999998,0.4474648057142857,0.2895724671428571,0.4070099971428571,1.1061559857142857,5.722972114285715,0.9736471057142858,0.4222790085714285,0.2796656042857143,-0.07685606328571429,0.10803137142857143,,136.87878787878788,0,L26_NIRS-2019-09-07_005_trial01.txt,151.0
