,time,S3_D4_HbO,S3_D3_HbO,S2_D3_HbO,S2_D2_HbO,S1_D2_HbO,S1_D1_HbO,S3_D4_HbR,S3_D3_HbR,S2_D3_HbR,S2_D2_HbR,S1_D2_HbR,S1_D1_HbR,Var14,score,labelnum,filename,total_time
0,202.816,3.00426643,0.601597512,-2.39481201,-0.7418278319999999,0.2490347,-0.5167976599999999,2.4451190200000004,2.2237317699999997,1.03868281,0.290240675,-0.278347953,0.23504605499999998,,202.72727272727272,1,L26_NIRS-2019-09-11_006_trial03.txt,70.0
1,204.096,3.0230119199999996,0.619461214,-2.3732440300000004,-0.704644127,0.258964745,-0.469406962,2.42142939,2.2058275800000002,1.03199943,0.276070827,-0.300692926,0.197606552,,202.72727272727272,1,L26_NIRS-2019-09-11_006_trial03.txt,70.0
2,205.37600000000003,3.0878010399999996,0.6841739059999999,-2.2854038599999997,-0.5883675090000001,0.301681042,-0.360189494,2.3920792200000003,2.17590108,1.0239683999999998,0.25098318899999994,-0.32752304599999993,0.156504749,,202.72727272727272,1,L26_NIRS-2019-09-11_006_trial03.txt,70.0
3,206.65600000000003,3.14244351,0.758131225,-2.1455082699999997,-0.454689149,0.330504701,-0.23591072600000002,2.37249314,2.1465576200000003,1.0177086800000001,0.23006891300000004,-0.35529728299999996,0.1103275365,,202.72727272727272,1,L26_NIRS-2019-09-11_006_trial03.txt,70.0
4,207.936,3.1730512499999994,0.810524854,-1.99115553,-0.345279808,0.341443536,-0.0874550949,2.3763881300000005,2.12187614,1.0149101899999997,0.21945387999999996,-0.37940061700000005,0.0711954184,,202.72727272727272,1,L26_NIRS-2019-09-11_006_trial03.txt,70.0
5,209.21599999999998,3.1791476399999996,0.833380554,-1.8752102999999998,-0.27954051199999996,0.33498775000000003,0.0637026793,2.39824461,2.1151066800000002,1.02075699,0.218953797,-0.396146044,0.0525462188,,202.72727272727272,1,L26_NIRS-2019-09-11_006_trial03.txt,70.0
6,210.49599999999995,3.1655756,0.8308539549999999,-1.8313634400000005,-0.235286589,0.31816261100000004,0.16256807699999998,2.4428821800000002,2.10907312,1.02376743,0.21594246,-0.40510085399999995,0.0618261101,,202.72727272727272,1,L26_NIRS-2019-09-11_006_trial03.txt,70.0
7,211.77599999999998,3.15214775,0.797915312,-1.8800030800000003,-0.21334967300000002,0.29520096500000004,0.16639280399999998,2.4829014999999997,2.0897314799999998,1.0148096,0.19645297899999997,-0.40932177999999997,0.09588791099999999,,202.72727272727272,1,L26_NIRS-2019-09-11_006_trial03.txt,70.0
8,213.05599999999998,3.1798247799999997,0.7732871099999999,-1.95871224,-0.183095039,0.288073799,0.0980920857,2.50852819,2.06875839,1.00653376,0.17209159599999999,-0.41253709499999996,0.13512905099999997,,202.72727272727272,1,L26_NIRS-2019-09-11_006_trial03.txt,70.0
9,214.33599999999996,3.2360568899999995,0.7713206479999999,-2.00285021,-0.139678378,0.29136026800000003,0.0014797042699999986,2.52045833,2.0565733000000006,1.00879242,0.15872058499999997,-0.41489559600000003,0.164380635,,202.72727272727272,1,L26_NIRS-2019-09-11_006_trial03.txt,70.0
10,215.61599999999999,3.2890555199999993,0.789465765,-1.9993209100000002,-0.10450236770000002,0.277574006,-0.11053517939999999,2.51657844,2.04973356,1.01562281,0.15112572,-0.418586747,0.16898826100000003,,202.72727272727272,1,L26_NIRS-2019-09-11_006_trial03.txt,70.0
11,216.89600000000004,3.3220965399999995,0.820132134,-1.96954712,-0.0827537471,0.24985437000000005,-0.19663821,2.4955379300000002,2.04085142,1.01958239,0.13821520699999998,-0.424722253,0.15648937599999999,,202.72727272727272,1,L26_NIRS-2019-09-11_006_trial03.txt,70.0
12,218.17600000000002,3.33252378,0.852407943,-1.94396873,-0.087853637,0.225680252,-0.24257352499999998,2.46541012,2.03318717,1.0155709899999998,0.117631758,-0.43266965700000004,0.12867384799999998,,202.72727272727272,1,L26_NIRS-2019-09-11_006_trial03.txt,70.0
13,219.456,3.3251981600000002,0.8801477240000001,-1.94254489,-0.124940994,0.20606342299999997,-0.282973694,2.45337499,2.0312138699999998,1.0055910300000002,0.0907642506,-0.43634370899999997,0.0927311021,,202.72727272727272,1,L26_NIRS-2019-09-11_006_trial03.txt,70.0
14,220.73600000000002,3.31873053,0.91051819,-1.9470601300000001,-0.171917985,0.196386533,-0.345366128,2.4579603899999998,2.04137711,0.995855447,0.06687555860000001,-0.43272038999999995,0.0606935762,,202.72727272727272,1,L26_NIRS-2019-09-11_006_trial03.txt,70.0
15,222.016,3.32978237,0.94965914,-1.9293923899999998,-0.19614554899999997,0.210100608,-0.370589018,2.4830135199999996,2.0603625800000005,0.992782575,0.0527708077,-0.41839105400000004,0.0550831685,,202.72727272727272,1,L26_NIRS-2019-09-11_006_trial03.txt,70.0
16,223.296,3.3631858200000004,0.9974131479999999,-1.8869015699999998,-0.19251269799999998,0.232423278,-0.36775344099999996,2.5133079499999997,2.0899740400000004,1.0006124,0.0519495536,-0.40201604,0.0593491804,,202.72727272727272,1,L26_NIRS-2019-09-11_006_trial03.txt,70.0
17,224.57600000000002,3.4131793200000002,1.0539865000000002,-1.81234671,-0.14817590600000002,0.277848957,-0.297880309,2.54536132,2.1186441200000004,1.0146041499999998,0.0602657471,-0.385718675,0.0835898233,,202.72727272727272,1,L26_NIRS-2019-09-11_006_trial03.txt,70.0
18,225.856,3.4665751800000004,1.11312466,-1.7266174799999998,-0.0693321562,0.339061479,-0.189174737,2.56881105,2.13832335,1.02255345,0.0654272265,-0.378538334,0.1103218971,,202.72727272727272,1,L26_NIRS-2019-09-11_006_trial03.txt,70.0
19,227.13599999999997,3.50735398,1.15114172,-1.6601543499999998,-0.0011776202859999992,0.403167646,-0.0860720904,2.5729106,2.1468729000000004,1.01981019,0.06167808810000001,-0.381533126,0.12182062199999999,,202.72727272727272,1,L26_NIRS-2019-09-11_006_trial03.txt,70.0
20,228.41600000000003,3.5067071800000003,1.1421422499999998,-1.6570699599999998,0.0021747777580000006,0.43071788,-0.055177576400000004,2.5587098800000003,2.1580471300000004,1.0102663699999999,0.05637533669999999,-0.39061135900000005,0.112733507,,202.72727272727272,1,L26_NIRS-2019-09-11_006_trial03.txt,70.0
21,229.696,3.45837245,1.0933166,-1.7139088699999998,-0.0545765625,0.41674622699999997,-0.09527227680000001,2.5503599200000004,2.17244039,1.000348736,0.057155226,-0.39928077900000003,0.09931516199999998,,202.72727272727272,1,L26_NIRS-2019-09-11_006_trial03.txt,70.0
22,230.97600000000003,3.3876465199999997,1.0100199770000002,-1.8138223500000001,-0.153002599,0.3706954539999999,-0.15979033599999998,2.5561904,2.18553111,0.99913688,0.070804468,-0.39987322100000006,0.0948004411,,202.72727272727272,1,L26_NIRS-2019-09-11_006_trial03.txt,70.0
23,232.256,3.3528989099999995,0.936574086,-1.8914350800000002,-0.237788275,0.325280715,-0.20176971100000002,2.5670507500000004,2.21357403,1.01722073,0.11159437800000001,-0.392370822,0.0891544257,,202.72727272727272,1,L26_NIRS-2019-09-11_006_trial03.txt,70.0
24,233.536,3.3760906899999994,0.902015839,-1.9151575899999997,-0.285663966,0.308938579,-0.19523956199999998,2.57887018,2.2554544400000003,1.04949818,0.17475257900000002,-0.37562966300000006,0.0881749487,,202.72727272727272,1,L26_NIRS-2019-09-11_006_trial03.txt,70.0
25,234.81599999999997,3.4398614200000006,0.906498637,-1.88448562,-0.297404286,0.3238264740000001,-0.14897480300000002,2.5807821300000002,2.2916921200000004,1.0786923700000002,0.231611784,-0.359042817,0.08104721699999999,,202.72727272727272,1,L26_NIRS-2019-09-11_006_trial03.txt,70.0
26,236.096,3.5073266700000003,0.9340477139999999,-1.8211343,-0.301266685,0.354887204,-0.0832176841,2.57981588,2.32562085,1.1006210499999998,0.27259420100000004,-0.34594723600000005,0.0674275084,,202.72727272727272,1,L26_NIRS-2019-09-11_006_trial03.txt,70.0
27,237.37600000000003,3.54862258,0.96493752,-1.7680885499999999,-0.31197072800000003,0.3792207980000001,-0.0325255146,2.56977551,2.3524408600000006,1.11130305,0.29475032799999995,-0.33785612099999995,0.0643237651,,202.72727272727272,1,L26_NIRS-2019-09-11_006_trial03.txt,70.0
28,238.656,3.5622480800000007,1.001363708,-1.7497384,-0.31040206800000003,0.38210796,-0.039528602499999996,2.55215872,2.3616885400000003,1.10795872,0.293544857,-0.339148828,0.08484790580000001,,202.72727272727272,1,L26_NIRS-2019-09-11_006_trial03.txt,70.0
29,239.936,3.5412746200000003,1.01019841,-1.80235822,-0.31425000999999997,0.38977324900000004,-0.062048006499999996,2.52596168,2.3311164,1.08122636,0.26061287299999997,-0.340534202,0.146163641,,202.72727272727272,1,L26_NIRS-2019-09-11_006_trial03.txt,70.0
30,241.21599999999998,3.5400235799999997,1.03358508,-1.8511006399999999,-0.27978752000000007,0.4151200630000001,-0.08540840050000001,2.5074736500000006,2.2985972000000006,1.05724806,0.233235074,-0.347127374,0.207403067,,202.72727272727272,1,L26_NIRS-2019-09-11_006_trial03.txt,70.0
31,242.496,3.5657891800000003,1.0746706000000001,-1.87593494,-0.22607460499999998,0.45924894800000005,-0.0857137391,2.5028905999999997,2.28075961,1.04198176,0.224713055,-0.353226924,0.254012595,,202.72727272727272,1,L26_NIRS-2019-09-11_006_trial03.txt,70.0
32,243.77599999999998,3.6034011,1.1200690500000001,-1.8586695799999997,-0.17183276500000003,0.5114339929999999,-0.0414601158,2.5148561000000003,2.2707356800000005,1.0361772300000003,0.22697267800000004,-0.357058475,0.27711243999999996,,202.72727272727272,1,L26_NIRS-2019-09-11_006_trial03.txt,70.0
33,245.05600000000004,3.62342268,1.15903347,-1.8192961699999999,-0.155033226,0.531816467,0.01392675239,2.53703681,2.28133221,1.03741943,0.24045893499999998,-0.359791732,0.264875349,,202.72727272727272,1,L26_NIRS-2019-09-11_006_trial03.txt,70.0
34,246.33599999999996,3.6406947900000004,1.17535452,-1.7832970699999997,-0.183408097,0.510345854,0.0485883141,2.5586285700000007,2.3053951199999996,1.0428868799999997,0.262060595,-0.36320598000000004,0.22734589900000005,,202.72727272727272,1,L26_NIRS-2019-09-11_006_trial03.txt,70.0
35,247.61599999999999,3.674692770000001,1.1769123899999998,-1.75275981,-0.20837912200000003,0.473800064,0.0558969323,2.5783699399999995,2.33802557,1.05389403,0.288972071,-0.3677502920000001,0.17979545300000002,,202.72727272727272,1,L26_NIRS-2019-09-11_006_trial03.txt,70.0
36,248.89600000000004,3.7201036600000004,1.1489950700000002,-1.76376181,-0.23062822,0.472182906,0.1082442388,2.57627354,2.35792326,1.05651175,0.30376791300000006,-0.36326715099999995,0.16112555300000003,,202.72727272727272,1,L26_NIRS-2019-09-11_006_trial03.txt,70.0
37,250.176,3.7522567700000002,1.1316677099999999,-1.7953164100000003,-0.230975031,0.488010491,0.153843874,2.5658233200000007,2.39446272,1.06159571,0.322871101,-0.36309073999999997,0.14327275300000003,,202.72727272727272,1,L26_NIRS-2019-09-11_006_trial03.txt,70.0
38,251.45600000000005,3.77030228,1.1023152,-1.8401350499999996,-0.23332747900000003,0.511497822,0.195452157,2.56574082,2.43139418,1.07044762,0.34449832100000005,-0.36053555299999995,0.132205124,,202.72727272727272,1,L26_NIRS-2019-09-11_006_trial03.txt,70.0
39,252.73600000000002,3.75961237,1.0763401799999999,-1.87982725,-0.24471110800000004,0.520348872,0.208767974,2.5828982299999996,2.4637528499999997,1.0830908899999998,0.36486505100000005,-0.35662842299999997,0.125029517,,202.72727272727272,1,L26_NIRS-2019-09-11_006_trial03.txt,70.0
40,254.01600000000002,3.72252208,1.0691615899999998,-1.90838447,-0.2616928399999999,0.5026892300000001,0.17977181,2.6039370199999996,2.4904272599999997,1.0951690800000002,0.37663305199999997,-0.353549467,0.12113627499999999,,202.72727272727272,1,L26_NIRS-2019-09-11_006_trial03.txt,70.0
41,255.296,3.692439029999999,1.07492465,-1.93890113,-0.28579153300000004,0.4621991670000001,0.10989131519999999,2.60774063,2.49132031,1.09709836,0.36486996400000005,-0.359677249,0.113650312,,202.72727272727272,1,L26_NIRS-2019-09-11_006_trial03.txt,70.0
42,256.576,3.7137945500000002,1.10387732,-1.9420585200000002,-0.27158851,0.446848284,0.0648147614,2.6123660499999994,2.46380951,1.09237027,0.3304079219999999,-0.37247551,0.104072253,,202.72727272727272,1,L26_NIRS-2019-09-11_006_trial03.txt,70.0
43,257.85600000000005,3.78201028,1.1526356999999998,-1.91588384,-0.211352933,0.4636425620000001,0.0653924469,2.59342074,2.4148543899999995,1.0828509299999998,0.28121295799999996,-0.39210986000000003,0.09291158860000001,,202.72727272727272,1,L26_NIRS-2019-09-11_006_trial03.txt,70.0
44,259.13599999999997,3.84423652,1.20301266,-1.8682814999999997,-0.13183891600000003,0.48702445899999997,0.0800523987,2.56328076,2.3712626900000005,1.0718843,0.24078595199999997,-0.41656329999999997,0.0762215041,,202.72727272727272,1,L26_NIRS-2019-09-11_006_trial03.txt,70.0
45,260.41600000000005,3.8825914500000005,1.21109502,-1.8265563500000002,-0.0958944252,0.48805723399999995,0.0983126375,2.53982621,2.3325782499999996,1.0629238799999998,0.218850508,-0.435756631,0.054838015000000004,,202.72727272727272,1,L26_NIRS-2019-09-11_006_trial03.txt,70.0
46,261.696,3.9104711300000004,1.19783679,-1.76940584,-0.0717913147,0.46999762,0.118601888,2.5289983199999995,2.31070028,1.06350823,0.22532943100000002,-0.443593633,0.0265490821,,202.72727272727272,1,L26_NIRS-2019-09-11_006_trial03.txt,70.0
47,262.976,3.91531317,1.18770039,-1.7137948900000002,-0.0504357498,0.445517112,0.140466169,2.5243402999999995,2.30533548,1.06928963,0.24192757499999998,-0.4387908530000001,0.00775268735,,202.72727272727272,1,L26_NIRS-2019-09-11_006_trial03.txt,70.0
48,264.256,3.91968897,1.20495771,-1.67589526,-0.018854337889999996,0.427385013,0.15453400899999997,2.5189891100000006,2.3040059,1.0732924,0.24896569800000004,-0.42841166799999997,0.00489646346,,202.72727272727272,1,L26_NIRS-2019-09-11_006_trial03.txt,70.0
49,265.536,3.94377997,1.26083105,-1.6469148200000003,0.043116924400000006,0.43346094199999996,0.17648782400000002,2.5190950599999997,2.3055830200000003,1.0733639400000001,0.23920281000000002,-0.417547703,0.01417676202,,202.72727272727272,1,L26_NIRS-2019-09-11_006_trial03.txt,70.0
50,266.81600000000003,3.99289968,1.32250676,-1.6389867500000002,0.09686504809999999,0.4548089030000001,0.20369711399999998,2.5257275399999997,2.2965303799999996,1.06450285,0.20854331999999998,-0.411643651,0.028571904599999993,,202.72727272727272,1,L26_NIRS-2019-09-11_006_trial03.txt,70.0
51,268.096,3.9917102200000008,1.3684665599999999,-1.6354346800000001,0.12815771400000003,0.458872598,0.17209224,2.5346596299999997,2.30434372,1.06405127,0.194988776,-0.40822089699999997,0.030416041900000003,,202.72727272727272,1,L26_NIRS-2019-09-11_006_trial03.txt,70.0
52,269.37600000000003,3.95267208,1.3949896899999998,-1.6025473300000002,0.15538010800000002,0.431512067,0.10320267720000001,2.5575900500000004,2.3429743000000003,1.08869649,0.23323445200000004,-0.40532849200000004,0.0257899505,,202.72727272727272,1,L26_NIRS-2019-09-11_006_trial03.txt,70.0
53,270.65599999999995,3.9314637400000003,1.38518632,-1.57001889,0.153484174,0.384980035,0.026556340119999994,2.59363821,2.3920238599999997,1.11984705,0.290335256,-0.40027241,0.01345927801,,202.72727272727272,1,L26_NIRS-2019-09-11_006_trial03.txt,70.0
54,271.93600000000004,3.93629471,1.34712617,-1.5243292,0.15043207600000003,0.340298613,-0.0017850577559999996,2.63169619,2.42780767,1.13354083,0.34993137599999996,-0.39516730800000005,0.0130092722,,202.72727272727272,1,L26_NIRS-2019-09-11_006_trial03.txt,70.0
55,273.024,3.9504666571428575,1.3227257285714287,-1.5261463714285717,0.13243481714285715,0.32306449428571427,0.018464571771428573,2.6484923285714284,2.4415468000000002,1.138150542857143,0.3873751914285714,-0.39177977999999997,0.026136996142857142,,202.72727272727272,1,L26_NIRS-2019-09-11_006_trial03.txt,70.0
